1181
1200
1302
1290
1207
1184
1197
1131
1179
1157
1168
1190
1243
1155
1191
1166
1218
1187
1245
1180
1186
1178
1069
1074
1172
1177
1170
1217
1405
1344
1331
1322
1171
1200
1243
1087
1090
1209
1170
1097
1152
1152
1094
1290
1271
1101
1246
962
815
882
888
784
814
929
901
996
787
1104
1041
1205
1214
1196
1173
1173
1181
1209
1168
1174
1177
1211
1311
1310
1341
1296
1254
1232
1275
1316
1314
1267
1338
1303
1310
1308
1204
1285
1156
1097
1286
1319
1229
1347
1330
1218
1283
1194
1165
1189
1288
1226
1328
1171
1213
1257
1346
1279
1270
1249
1291
1246
1303
1286
1215
1265
1293
1257
1276
1266
1287
1236
1248
1314
1283
1295
1266
1243
1196
1255
1201
1234
1229
1264
1299
1253
1392
1328
1327
1410
1350
1305
1203
1173
1349
1373
1348
1287
1342
1307
1296
1371
1316
1319
1318
1229
1245
1291
1299
1285
1243
1313
1327
1307
1231
1296
1190
1222
1261
1189
1045
1145
1222
1217
1206
1139
1180
1091
1135
1079
1076
1134
1143
1105
1136
1079
1056
1063
1099
1041
1067
1104
1098
1089
1074
1053
1077
1087
1114
1110
1062
1070
1046
1070
1057
1045
1104
1051
1130
1097
1078
1077
1098
1068
1165
1086
1078
1088
1071
1092
1074
1102
1072
1122
1197
1231
1167
1191
1152
1127
1108
1091
1019
1126
1070
1177
1182
1119
1168
1087
1117
1186
1233
1174
1147
1185
1249
1165
1113
1135
1087
1136
1141
1206
1296
1280
1168
1231
1181
1171
1136
1173
1139
1191
1246
1189
1138
1104
1137
1200
1242
1239
1145
1078
1097
1164
1199
1184
1165
1149
1246
1203
1153
1150
1194
1174
1200
1210
1177
1145
1140
1152
1202
1188
1143
1135
1188
1161
1186
1188
1136
1143
1149
1234
1223
1250
1163
1152
1141
1188
1136
1183
1149
1291
1174
1230
1198
1003
1088
1054
1180
1241
1216
1168
1212
1260
1279
1152
1072
1093
1129
1177
1168
1212
1171
1225
1182
1191
1182
1169
1181
1284
1197
1180
1213
1235
1207
1175
1215
1200
1188
1252
1197
1239
1233
1244
1231
1193
1155
1118
1151
1151
1099
1142
1216
1204
1232
1204
1255
1184
1087
1037
1101
1168
1210
1239
1264
1200
1120
1111
1220
1184
1193
1246
1263
1185
1137
1150
1142
1130
1175
1152
1152
1159
1264
1271
1253
1296
1277
1326
1265
1277
1182
1148
1115
1085
1181
1166
1047
1185
1009
1222
1260
1068
1232
1136
989
880
790
817
800
874
891
963
913
960
1010
1142
1243
1157
1285
1152
1237
1286
1278
1233
1262
1200
1210
1247
1329
1301
1287
1216
1264
1250
1252
1263
1360
1264
1296
1275
1178
1172
1246
1235
1269
1220
1231
1240
1261
1264
1222
1198
1371
1328
1317
1281
1231
1200
1168
1213
1252
1299
1295
1231
1162
1233
1266
1322
1200
1175
1271
1312
1284
1328
1211
1226
1279
1266
1261
1275
1296
1363
1290
1296
1286
1270
1232
1278
1264
1290
1278
1296
1293
1357
1264
1316
1261
1251
1365
1264
1353
1286
1377
1299
1255
1280
1296
1243
1248
1298
1307
1302
1337
1406
1297
1277
1296
1261
1200
1198
1186
1254
1267
1202
1179
1146
1123
1152
1117
1199
1151
1121
1103
1105
1168
1153
1063
1020
1200
1115
954
854
944
1057
1067
1154
1136
1120
1111
1180
1073
1056
1114
1077
1087
1050
1020
1053
1040
941
1101
1072
1090
1154
1104
1087
1100
1073
1040
1153
1159
1225
1155
1046
1035
1063
1063
1120
1151
1126
1103
1122
1136
1151
1098
1104
1165
1216
1113
1101
985
1221
1210
1152
1181
1120
1179
1070
1200
1103
1152
1160
1121
1147
1227
1185
1168
1189
1241
1268
1199
1162
1213
1239
1179
1222
1194
1137
1105
1114
1142
1213
1143
1168
1150
1180
1264
1091
1232
1136
1104
1178
1216
1152
1124
1202
1211
1235
1180
1114
1133
1264
1223
1257
1232
1191
1264
1208
1202
1212
1122
1131
1187
1141
1131
1124
1168
1199
1169
1203
1203
1238
1231
1086
1074
1126
1197
1262
1252
1230
1216
1199
1084
1194
1101
1206
1126
1208
1202
1199
1251
1155
1119
1224
1210
1227
1312
1213
1179
1266
1335
1264
1137
1091
1191
1186
1270
1165
1211
1162
1132
1168
1187
1120
1200
1125
1081
1104
1200
1200
1165
1162
1145
1194
1187
1190
1162
1200
1167
1233
1210
1195
1223
1179
1220
1206
1125
1079
1154
1167
1121
1158
1200
1195
1158
1136
1213
1185
1167
1248
1321
1369
1328
1247
1209
1267
1211
1155
1173
1328
1063
1008
1203
1104
1123
1014
1093
1189
1260
1133
1088
1131
991
784
736
883
817
901
831
902
937
1111
1199
1150
1172
1189
1157
1246
1230
1210
1186
1299
1336
1315
1392
1232
1255
1324
1231
1209
1317
1286
1325
1248
1243
1328
1227
1171
1311
1195
1190
1289
1314
1343
1306
1179
1251
1232
1212
1315
1310
1346
1200
1194
1237
1280
1229
1238
1072
1329
1232
1287
1306
1300
1309
1231
1277
1215
1237
1229
1230
1119
1296
1252
1234
1149
1282
1345
1274
1244
1281
1296
1260
1271
1248
1306
1270
1328
1216
1259
1274
1355
1375
1328
1355
1360
1319
1300
1305
1267
1258
1322
1277
1264
1317
1323
1290
1348
1351
1254
1231
1271
1279
1325
1267
1263
1244
1090
1232
1087
1250
1149
1150
1179
1205
1161
1168
1161
1232
1168
1083
994
1053
1148
1109
1075
1096
1053
1077
1037
1069
1023
1018
1127
997
970
1055
1078
1072
1082
1067
1040
1010
1010
1023
1072
1135
1147
1168
1152
1149
1084
1119
1070
1085
1089
1056
1104
1104
1157
1198
1191
1114
1122
1126
1130
1094
1111
1126
1104
1112
1203
1183
1103
1103
1191
1104
1114
1208
1152
1180
1145
1165
1206
1177
1133
1084
1087
1197
1269
1150
1072
1116
1162
1105
1104
1170
1187
1251
1163
1174
1152
1279
1232
1267
1110
1097
1144
1225
1230
1184
1181
1232
1178
1190
1229
1250
1223
1167
1137
1104
1140
1225
1287
1213
1095
1216
1172
1172
1156
1121
1114
1127
1172
1134
1168
1154
1150
1237
1182
1176
1200
1150
1136
1255
1182
1104
1189
1194
1134
1104
1195
1122
1345
1296
1269
1172
1210
1184
1091
1158
1107
1205
1187
1152
1119
1167
1262
1210
1107
1169
1241
1251
1232
1167
1174
1169
1153
1127
1105
1137
1168
1135
1136
1249
1126
1232
1296
1247
1238
1185
1178
1271
1275
1213
1114
1136
1286
1296
1162
1131
1183
1285
1287
1222
1170
1127
1216
1290
1219
1189
1208
1171
1202
1153
1136
1168
1163
1245
1106
1168
1190
1154
1190
1134
1200
1264
1104
1146
1151
1200
1182
1147
1199
1123
1104
1142
1127
1149
1217
1126
1168
1193
1249
1296
1229
1367
1347
1329
1324
1290
1214
1119
1115
1174
1136
1170
1268
1266
1151
1269
1290
1204
1200
1182
1053
944
797
739
725
751
819
865
931
950
993
1191
1173
1172
1168
1235
1219
1156
1180
1177
1241
1226
1218
1244
1277
1251
1264
1279
1315
1261
1251
1215
1264
1283
1269
1296
1282
1266
1217
1281
1241
1264
1241
1248
1258
1275
1258
1297
1246
1280
1279
1297
1275
1230
1159
1203
1274
1220
1253
1235
1280
1294
1306
1180
1220
1230
1235
1230
1284
1247
1264
1262
1302
1258
1293
1280
1195
1249
1264
1275
1292
1286
1262
1283
1296
1328
1296
1380
1249
1360
1322
1285
1299
1335
1299
1284
1424
1376
1383
1287
1307
1285
1180
1203
1354
1359
1348
1283
1281
1332
1322
1296
1277
1350
1268
1258
1207
1191
1231
1237
1232
1200
1174
1170
1211
1185
1097
1089
1191
1153
1101
1040
1144
1182
1156
1120
1045
1023
972
1010
1071
1165
1171
1067
1063
1088
1089
1091
1047
1049
1055
1044
1045
1061
1140
1103
1133
1066
1094
1097
1106
1166
1042
1077
1090
1136
1194
1114
1124
1036
1147
1168
1088
1110
1115
1078
1087
1057
1123
1136
1168
1209
1052
1066
1005
1188
1211
1106
1255
1204
1197
1104
1153
1206
1210
1110
1221
1130
1229
1152
1143
1136
1185
1181
1221
1171
1139
1184
1254
1179
1158
1165
1140
1150
1187
1107
1099
1057
1172
1206
1253
1275
1202
1074
1105
1181
1154
1113
1187
1201
1177
1259
1248
1186
1152
1182
1110
1159
1131
1136
1210
1251
1197
1171
1142
1136
1231
1195
1129
1113
1083
1131
1182
1216
1252
1271
1168
1105
1014
1144
1228
1214
1178
1209
1169
1125
1283
1220
1151
1170
1146
1138
1143
1189
1235
1226
1137
1212
1230
1232
1077
1097
1194
1213
1174
1209
1200
1147
1183
1135
1170
1213
1264
1254
1230
1173
1199
1228
1298
1339
1264
1111
1136
1191
1309
1255
1278
1206
1232
1228
1205
1289
1218
1189
1100
1252
1217
1146
1091
1230
1158
1154
1150
1177
1189
1194
1159
1140
1211
1264
1088
1170
1175
1131
1167
1165
1145
1152
1179
1116
1168
1152
1218
1323
1290
1143
1168
1168
1271
1330
1357
1299
1348
1294
1246
1198
1201
1107
1136
1108
1182
1109
1111
1151
1213
1273
1248
1072
1157
992
912
809
693
678
790
763
835
912
1072
1055
1188
1178
1179
1259
1264
1249
1241
1229
1217
1238
1250
1250
1230
1232
1197
1239
1243
1306
1299
1273
1236
1205
1301
1375
1235
1275
1359
1238
1213
1285
1278
1288
1266
1271
1249
1269
1193
1173
1146
1242
1283
1254
1264
1307
1264
1203
1239
1235
1187
1201
1321
1299
1229
1286
1259
1314
1338
1345
1344
1306
1313
1168
1165
1341
1280
1274
1234
1219
1250
1271
1253
1262
1296
1341
1323
1296
1317
1207
1200
1225
1319
1315
1344
1315
1349
1403
1315
1305
1360
1328
1311
1262
1265
1292
1296
1330
1358
1311
1287
1271
1239
1301
1229
1274
1241
1225
1264
1244
1193
1168
1257
1188
1230
1169
1158
1174
1149
1034
1083
1109
1134
1084
1008
1042
1035
1052
1087
1075
1076
1084
1039
1045
1098
1122
998
1010
1040
1038
1058
1158
1068
1058
1072
1018
1104
1058
1035
1063
1047
1102
1187
1090
1101
1088
1090
1086
1040
1093
1104
1126
1106
1118
1123
1168
1061
1089
1162
1189
1152
1143
1142
1094
1023
1119
1235
1167
1152
1117
1088
1167
1226
1189
1125
1072
1107
1200
1291
1232
1197
1211
1183
1134
1067
1139
1152
1142
1126
1212
1204
1257
1280
1169
1186
1168
1171
1131
1165
1197
1185
1256
1252
1168
1152
1168
1045
1200
1061
1331
1264
1158
1175
1253
1194
1121
1105
1231
1231
1168
1093
1111
1212
1210
1146
1104
1167
1152
1227
1206
1230
1179
1138
1174
1241
1075
1230
1225
1219
1180
1200
1078
1107
1228
1185
1187
1184
1171
1141
1174
1185
1109
1039
1149
1218
1178
1152
1281
1184
1165
1151
1138
1104
1136
1222
1167
1222
1273
1195
1134
1136
1232
1255
1197
1214
1205
1259
1238
1295
1212
1215
1175
1247
1222
1222
1170
1203
1230
1200
1161
1159
1168
1201
1156
1151
1192
1185
1163
1219
1200
1152
1143
1118
1233
1134
1168
1161
1196
1200
1125
1172
1215
1185
1127
1142
1133
1198
1163
1090
1200
1201
1138
1138
1306
1262
1249
1213
1254
1326
1326
1327
1186
1117
1146
1157
1056
1060
1066
1122
1213
1238
1264
1204
1249
1189
1136
972
912
738
719
832
895
1015
958
1018
961
1089
1066
1103
1199
1195
1222
1248
1300
1199
1262
1242
1273
1233
1207
1206
1270
1296
1232
1290
1327
1306
1268
1363
1203
1263
1237
1287
1287
1312
1266
1264
1283
1277
1226
1255
1248
1266
1206
1281
1179
1244
1233
1229
1228
1264
1214
1258
1143
1107
1242
1309
1280
1293
1360
1278
1184
1214
1365
1329
1232
1242
1293
1282
1296
1268
1242
1260
1269
1268
1295
1309
1221
1327
1309
1344
1349
1297
1281
1227
1328
1344
1361
1312
1231
1280
1343
1234
1245
1334
1354
1206
1190
1254
1370
1355
1363
1396
1335
1299
1282
1333
1242
1283
1317
1294
1216
1230
1261
1192
1205
1189
1218
1223
1142
1145
1094
1102
1135
1087
1099
1131
1067
1072
1125
1054
1095
1177
1105
1149
1057
1023
1035
976
1106
1188
1155
1165
1088
1072
1078
1056
1040
995
993
1011
1023
1109
1116
1136
1094
1161
1107
1085
1134
1088
1127
1102
1104
1063
1088
1046
1039
1121
1209
1125
1148
1109
1071
1140
1141
1091
1130
1136
1049
1206
1099
1190
1253
1200
1221
1174
1075
1093
1195
1176
1147
1136
1135
1171
1168
1280
1285
1143
1134
1104
1062
1180
1058
1143
1231
1150
1154
1157
1142
1264
1215
1199
1102
1069
1065
1200
1215
1214
1202
1264
1233
1231
1162
1102
1122
1074
1136
1215
1184
1266
1127
1167
1217
1166
1150
1136
1159
1135
1107
1165
1168
1203
1189
1162
1211
1184
1202
1163
1167
1135
1188
1233
1137
1104
1201
1121
1282
1290
1226
1170
1187
1136
1169
1063
1076
1282
1193
1196
1276
1214
1165
1168
1216
1122
1146
1214
1242
1209
1203
1239
1216
1235
1203
1207
1251
1217
1163
1117
1170
1259
1199
1273
1322
1190
1077
1127
1126
1171
1120
1079
1234
1152
1271
1271
1222
1168
1156
1121
1170
1098
1112
1243
1222
1187
1167
1102
1155
1207
1182
1193
1216
1182
1195
1166
1121
1174
1226
1141
1226
1247
1254
1359
1308
1293
1283
1187
1145
1136
1079
1211
1072
1022
1243
1071
1153
1097
1300
1168
1050
1047
1091
996
885
798
824
832
816
863
954
985
1160
979
1238
1281
1238
1199
1192
1267
1291
1211
1225
1222
1295
1280
1287
1218
1152
1183
1264
1233
1234
1331
1295
1226
1138
1199
1322
1324
1309
1263
1183
1187
1258
1248
1262
1276
1212
1280
1239
1253
1231
1279
1301
1268
1271
1210
1247
1220
1200
1227
1299
1293
1286
1237
1310
1243
1254
1252
1189
1142
1289
1312
1217
1244
1356
1369
1335
1271
1333
1383
1278
1264
1169
1316
1198
1319
1264
1242
1352
1341
1370
1366
1296
1285
1298
1267
1358
1306
1319
1273
1271
1350
1308
1269
1318
1267
1243
1281
1241
1296
1360
1347
1342
1265
1249
1232
1302
1271
1194
1195
1200
1247
1158
1043
1198
1163
1063
1147
1197
1150
1163
1191
1082
1104
1040
1040
1023
1072
1102
1074
1021
1127
1120
1072
1111
990
996
1063
1121
1166
1079
1037
990
1071
1150
1085
1051
1131
1062
1070
1104
1110
1136
1104
1077
1090
1011
1066
1084
1091
1177
1122
1092
1078
1136
1118
1088
1136
1200
1146
1133
1168
1136
1187
1168
1132
1075
1106
1152
1162
1118
1119
1116
1164
1191
1136
1182
1181
1152
1118
1167
1200
1153
1164
1182
1119
1136
1193
1219
1165
1147
1167
1211
1200
1201
1122
1212
1167
1218
1136
1183
1152
1211
1154
1232
1238
1125
1218
1183
1104
1072
1229
1083
1104
1152
1233
1183
1163
1145
1139
1232
1149
1168
1190
1215
1117
1154
1200
1219
1184
1185
1233
1180
1199
1211
1200
1162
1115
1127
1205
1161
1199
1190
1250
1168
1104
1170
1135
1119
1217
1121
1056
1232
1104
1213
1132
1167
1187
1164
1171
1158
1130
1200
1207
1159
1298
1263
1235
1206
1221
1185
1195
1167
1203
1200
1201
1162
1227
1211
1247
1250
1280
1271
1200
1046
1069
1237
1265
1194
1178
1210
1175
1188
1132
1130
1121
1102
1161
1178
1124
1117
1136
1181
1196
1181
1216
1172
1104
1182
1214
1195
1168
1259
1140
1210
1072
1011
1129
1183
1279
1227
1260
1186
1223
1282
1236
1171
1306
1242
1263
1360
1243
1223
1178
1232
1178
1178
1135
1130
1101
1087
1140
1146
1195
1164
1040
1175
922
864
727
785
813
881
902
892
998
1104
1213
1182
1178
1251
1239
1215
1219
1168
1179
1246
1182
1162
1250
1292
1280
1307
1301
1299
1280
1212
1181
1296
1321
1257
1257
1253
1252
1329
1264
1234
1230
1262
1286
1227
1253
1218
1242
1299
1212
1241
1242
1210
1245
1255
1289
1245
1255
1262
1197
1213
1233
1232
1210
1293
1323
1345
1290
1233
1256
1264
1366
1244
1193
1189
1323
1300
1264
1346
1238
1296
1333
1255
1191
1250
1345
1298
1236
1216
1313
1301
1380
1361
1450
1310
1240
1268
1325
1389
1383
1326
1317
1283
1347
1305
1271
1277
1367
1286
1228
1287
1358
1296
1292
1230
1230
1278
1173
1099
1136
1185
1298
1282
1325
1264
1187
1089
1123
1165
1197
1163
1203
1121
1066
1014
1099
1072
1035
1014
1086
1093
990
991
1040
1056
1015
1045
1139
1082
1121
1068
1138
1045
1099
1113
1133
1131
1104
1103
1122
1037
1003
1118
1193
1206
1140
1125
1150
1085
1104
1186
1167
1199
1123
1206
1201
1070
1057
955
1013
1009
1138
1100
1152
1186
1200
1138
1181
1161
1174
1267
1224
1182
1189
1178
1215
1150
1111
1104
1117
1179
1210
1223
1200
1227
1232
1171
1141
1093
1103
1169
1117
1115
1142
1068
1172
1296
1168
1140
1192
1229
1177
1192
1233
1218
1157
1153
1168
1154
1227
1173
1226
1221
1182
1188
1181
1182
1168
1181
1119
1168
1104
1150
1189
1174
1226
1165
1088
1089
1067
1194
1230
1331
1319
1297
1145
1170
1105
1157
1156
1115
1169
1241
1226
1316
1296
1198
1151
1172
1131
1131
1194
1142
1114
1143
1242
1197
1153
1191
1154
1142
1206
1191
1277
1066
1052
1221
1241
1294
1177
1192
1260
1278
1219
1199
1232
1200
1123
1264
1126
1216
1205
1264
1170
1209
1257
1244
1193
1139
1199
1232
1202
1245
1136
1192
1216
1229
1168
1230
1247
1172
1150
1177
1179
1168
1178
1200
1168
1136
1206
1127
1166
1215
1132
1139
1148
1239
1111
1145
1176
1232
1152
1168
1215
1237
1222
1154
1126
1121
1171
1191
1206
1215
1239
1328
1318
1374
1306
1233
1127
1095
1155
1179
1232
1168
1095
1141
1226
1153
1172
1091
1066
1134
1087
848
769
771
809
843
967
926
944
1040
1063
1067
1138
1239
1225
1230
1218
1266
1255
1239
1280
1309
1303
1286
1209
1214
1238
1262
1326
1299
1213
1198
1232
1351
1279
1261
1339
1346
1206
1159
1184
1240
1207
1249
1232
1235
1346
1291
1231
1194
1217
1231
1232
1239
1231
1285
1253
1300
1374
1325
1276
1191
1129
1200
1259
1265
1312
1251
1261
1278
1310
1221
1253
1278
1324
1313
1308
1257
1308
1233
1313
1263
1225
1245
1249
1262
1264
1309
1369
1375
1371
1338
1279
1328
1403
1375
1294
1286
1390
1307
1226
1170
1314
1327
1358
1422
1327
1296
1334
1339
1344
1213
1264
1308
1270
1289
1218
1247
1139
1232
1191
1224
1163
1171
1136
1114
1107
1146
1138
1095
1095
1059
1130
1161
1051
1162
1053
1118
1122
1061
1087
1023
1123
1071
1067
1058
1079
1051
1170
1251
1160
1023
1074
1054
1075
1136
1097
1067
1077
1088
1095
1130
1152
1069
1137
1043
1088
1071
1052
1104
1157
1074
1008
1067
1099
1148
1127
1168
1210
1143
1082
1094
1174
1136
1108
1094
1210
1155
1121
1136
1152
1184
1200
1158
1157
1182
1216
1232
1207
1154
1115
1164
1223
1171
1104
1178
1187
1212
1127
1154
1079
1170
1190
1213
1218
1218
1168
1168
1218
1186
1231
1217
1163
1110
1103
1122
1227
1187
1175
1165
1232
1247
1223
1159
1168
1136
1155
1232
1233
1153
1161
1072
1123
1115
1186
1150
1187
1229
1289
1258
1178
1193
1119
1143
1168
1212
1152
1195
1194
1209
1216
1114
1174
1120
1206
1169
1167
1205
1232
1287
1168
1184
1232
1200
1187
1083
1104
1104
1191
1266
1261
1216
1202
1134
1090
1198
1043
1271
1223
1222
1200
1154
1165
1197
1285
1261
1200
1203
1201
1200
1170
1195
1194
1194
1254
1236
1237
1259
1175
1190
1137
1198
1259
1187
1159
1088
1104
1209
1246
1216
1121
1087
1227
1068
1102
1129
1213
1222
1197
1145
1205
1166
1255
1213
1168
1168
1131
1131
1168
1207
1227
1142
1142
1094
1139
1239
1270
1255
1297
1296
1311
1318
1300
1232
1170
1200
1178
1115
1200
1088
1230
1197
1185
1149
1168
1140
1051
1037
1082
948
798
796
834
835
865
893
962
1065
1045
1120
1174
1200
1216
1213
1219
1191
1264
1265
1261
1297
1233
1169
1261
1222
1220
1258
1300
1298
1292
1242
1232
1123
1214
1241
1264
1239
1345
1341
1328
1337
1291
1267
1265
1234
1237
1232
1211
1216
1260
1247
1219
1207
1270
1264
1254
1264
1308
1258
1266
1327
1254
1239
1259
1230
1264
1233
1315
1246
1173
1200
1200
1293
1371
1289
1218
1213
1217
1291
1267
1267
1269
1301
1324
1357
1281
1215
1274
1242
1359
1283
1341
1325
1392
1328
1393
1328
1261
1274
1313
1428
1279
1200
1142
1216
1295
1431
1420
1407
1288
1299
1353
1264
1279
1214
1185
1215
1236
1273
1266
1168
1229
1206
1157
1230
1172
1248
1148
1090
1120
1108
1052
1073
1070
971
1011
1035
1110
1141
1088
1045
1158
1054
1150
1039
1005
1040
1124
1021
1072
1044
1110
1065
1116
1066
1168
1120
1098
1069
1062
1073
1118
1113
1055
1084
1077
1104
1092
1109
1173
1264
1157
1056
976
1158
1036
1216
1200
1171
1101
1125
1072
1152
1222
1141
1147
1175
1182
1121
1150
1200
1136
1177
1147
1097
1187
1196
1121
1195
1184
1203
1200
1169
1082
1119
1200
1200
1166
1194
1235
1296
1254
1181
1164
1111
1149
1122
1168
1200
1170
1200
1257
1163
1193
1135
1161
1158
1148
1195
1194
1164
1143
1162
1174
1139
1206
1188
1169
1135
1143
1180
1247
1217
1163
1125
1194
1187
1223
1226
1218
1137
1067
1200
1250
1168
1207
1232
1073
1051
1141
1243
1196
1218
1210
1175
1136
1130
1139
1203
1199
1202
1152
1157
1135
1219
1232
1189
1220
1247
1214
1239
1207
1221
1098
1047
1097
1181
1259
1200
1200
1180
1206
1198
1209
1168
1200
1198
1134
1132
1152
1166
1174
1147
1123
1162
1222
1245
1200
1177
1239
1232
1189
1200
1098
1102
1232
1242
1218
1212
1310
1264
1246
1201
1189
1258
1237
1166
1165
1203
1183
1165
1227
1137
1121
1130
1185
1248
1286
1234
1040
1204
1111
1131
1139
1198
1123
1117
1129
1159
1170
1198
1235
1201
1151
1222
1206
1189
1159
1200
1171
1177
1125
1201
1217
1264
1248
1349
1239
1322
1343
1344
1296
1213
1157
1122
1110
1222
1189
1172
1056
1084
1133
1181
1186
1133
1079
957
1015
1135
976
854
779
817
873
867
937
1013
1098
1157
1210
1219
1235
1153
1201
1217
1296
1253
1271
1233
1252
1296
1270
1269
1245
1229
1234
1248
1247
1232
1232
1264
1205
1233
1274
1283
1354
1401
1255
1231
1264
1280
1280
1247
1168
1216
1291
1341
1250
1276
1290
1195
1285
1226
1205
1262
1241
1206
1347
1298
1232
1259
1271
1245
1265
1264
1270
1279
1250
1221
1286
1264
1371
1267
1250
1343
1338
1237
1325
1286
1245
1175
1187
1168
1355
1331
1377
1246
1245
1330
1375
1378
1344
1270
1327
1379
1297
1300
1323
1405
1360
1311
1291
1373
1276
1277
1291
1283
1278
1246
1285
1247
1232
1230
1207
1217
1217
1259
1290
1285
1240
1136
1136
1138
1150
1121
1142
1230
1150
1170
1097
1190
1189
1090
1010
1088
1141
1072
1008
1045
1040
1053
1042
1089
1169
1139
977
980
1040
1022
1061
1082
1115
1049
993
1042
1023
1135
1168
1102
1123
1163
1119
1023
1057
1168
1131
1124
1087
1087
1074
1119
1174
1101
1059
1149
1079
1272
1103
1195
1125
1095
1117
1069
1021
1022
1169
1209
1135
1118
1169
1216
1243
1191
1167
1178
1094
1110
1216
1224
1200
1190
1217
1278
1215
1109
1200
1209
1057
1136
1137
1137
1130
1185
1194
1153
1142
1168
1181
1078
1205
1181
1292
1247
1310
1294
1243
1250
1182
1168
1141
1108
1165
1094
1134
1160
1132
1136
1202
1219
1200
1217
1200
1130
1161
1175
1155
1102
1088
1123
1214
1262
1187
1220
1130
1179
1181
1193
1246
1164
1137
1248
1206
1205
1234
1215
1219
1195
1162
1141
1178
1165
1161
1237
1230
1200
1136
1152
1165
1172
1223
1168
1125
1105
1147
1224
1243
1218
1274
1223
1079
1143
1142
1110
1163
1199
1220
1194
1145
1175
1231
1121
1183
1177
1210
1230
1214
1194
1141
1136
1169
1200
1184
1173
1168
1233
1274
1235
1267
1265
1249
1237
1230
1232
1200
1137
1209
1147
1239
1136
1232
1175
1084
1070
1183
1157
1168
1197
1226
1212
1203
1114
1117
1153
1201
1223
1171
1135
1104
1184
1161
1122
1170
1173
1173
1251
1257
1198
1082
1151
1157
1194
1170
1129
1173
1232
1278
1318
1296
1232
1392
1318
1232
1166
1113
1117
1128
1168
1277
1264
1267
1135
1089
1148
1197
1151
1170
1097
1070
889
566
679
801
944
932
938
951
1079
1111
1185
1219
1326
1199
1163
1168
1168
1339
1224
1336
1297
1218
1125
1171
1328
1324
1272
1251
1232
1311
1296
1329
1266
1197
1223
1251
1194
1270
1236
1287
1200
1235
1231
1274
1268
1277
1217
1354
1259
1251
1251
1223
1265
1126
1142
1163
1171
1232
1247
1357
1223
1257
1328
1303
1264
1225
1082
1264
1261
1132
1254
1249
1258
1232
1219
1243
1296
1360
1350
1264
1199
1238
1223
1325
1292
1312
1273
1312
1280
1359
1355
1334
1334
1431
1366
1359
1274
1275
1222
1274
1355
1360
1361
1273
1344
1287
1289
1333
1216
1313
1270
1205
1231
1286
1330
1296
1259
1238
1213
1200
1204
1175
1185
1186
1243
1181
1139
1136
1104
1126
1094
1123
1061
1105
1052
1033
1127
1072
1070
1097
999
1093
1126
1050
1100
1054
975
974
1017
1041
1068
1070
1095
1147
1121
989
1055
1105
1199
1145
1094
1041
1049
1107
1131
1104
1072
1148
1093
1122
1168
1113
1086
1089
1120
1109
1127
1040
1107
1150
1108
1038
1063
1110
1059
1077
1168
1202
1206
1132
1201
1189
1174
1201
1118
1110
1164
1197
1129
1089
1155
1146
1152
1213
1229
1082
1271
1167
1157
1255
1206
1191
1127
1197
1183
1179
1088
1137
1158
1232
1197
1126
1121
1170
1218
1167
1086
1147
1087
1062
1095
1198
1283
1201
1162
1181
1089
1123
1194
1195
1149
1134
1193
1113
1178
1172
1178
1127
1184
1197
1200
1196
1227
1111
1125
1175
1197
1256
1211
1186
1118
1095
1159
1199
1296
1264
1136
1072
1138
1215
1134
1186
1214
1267
1168
1153
1210
1174
1266
1195
1099
1220
1048
1157
1088
1065
1102
1211
1203
1200
1264
1264
1200
1218
1200
1237
1227
1184
1222
1290
1217
1248
1232
1200
1179
1168
1189
1194
1247
1226
1142
1101
1190
1189
1123
1236
1086
1059
1168
1140
1151
1216
1178
1212
1185
1183
1282
1232
1218
1175
1141
1134
1169
1141
1097
1095
1221
1187
1116
1163
1187
1203
1158
1184
1152
1170
1240
1270
1255
1268
1303
1301
1264
1154
1247
1168
1141
1124
1137
1093
1216
1075
1073
1173
1218
1211
1137
1108
1126
951
725
785
735
831
862
844
1111
1015
1120
1129
1168
1233
1194
1192
1236
1259
1276
1264
1251
1253
1261
1218
1192
1168
1261
1256
1275
1228
1264
1293
1329
1344
1265
1207
1296
1265
1222
1158
1182
1223
1173
1226
1261
1303
1379
1355
1292
1300
1316
1231
1214
1180
1167
1296
1211
1255
1232
1280
1258
1307
1232
1270
1247
1301
1247
1250
1242
1267
1306
1230
1225
1236
1181
1191
1236
1277
1327
1305
1249
1255
1307
1313
1258
1232
1259
1377
1367
1364
1311
1362
1296
1344
1215
1168
1294
1415
1358
1326
1394
1305
1287
1315
1360
1216
1219
1261
1365
1296
1222
1277
1295
1319
1232
1283
1324
1273
1168
1197
1232
1168
1221
1216
1123
1209
1219
1210
1118
1134
1093
996
1086
947
1081
1162
1103
1097
1105
1122
1088
1158
1159
1088
1072
1008
1038
1072
1116
1049
1072
1099
1147
1122
1115
1098
1058
1021
1094
1104
1124
1090
1049
1055
991
1041
1058
1041
1152
1019
1104
1157
1114
1121
1119
1149
1120
1146
1161
1126
1042
1136
1117
1201
1103
1146
1142
1121
1150
1183
1125
1123
1168
1247
1153
1168
1217
1123
1123
1173
1107
1136
1201
1143
1137
1130
1155
1131
1242
1135
1092
1155
1195
1200
1088
1131
1205
1187
1200
1232
1258
1249
1195
1165
1084
1088
1098
1134
1205
1200
1232
1210
1138
1159
1114
1185
1137
1118
1136
1166
1198
1168
1168
1136
1171
1119
1183
1182
1125
1157
1230
1157
1178
1120
1231
1226
1071
1116
1198
1249
1200
1232
1200
1146
1233
1206
1188
1142
1210
1168
1194
1166
1166
1216
1163
1141
1153
1181
1208
1251
1174
1202
1136
1181
1168
1206
1210
1180
1179
1131
1117
1138
1168
1173
1258
1235
1275
1265
1273
1271
1187
1238
1218
1171
1234
1206
1165
1198
1209
1233
1180
1216
1168
1085
1093
1150
1144
1215
1259
1205
1167
1182
1227
1202
1158
1157
1126
1073
1134
1187
1149
1154
1216
1188
1184
1190
1109
1132
1088
1129
1232
1265
1232
1152
1136
1216
1223
1265
1348
1319
1279
1258
1271
1157
1203
1129
1159
1209
1156
1110
1169
1086
1155
1152
1136
1121
1091
991
720
785
783
1095
811
1040
886
1009
865
999
1104
1216
1198
1230
1185
1321
1343
1199
1074
1170
1200
1225
1243
1277
1254
1264
1247
1207
1230
1295
1233
1244
1241
1259
1259
1245
1286
1274
1278
1265
1216
1289
1344
1367
1264
1322
1328
1200
1151
1138
1184
1186
1222
1290
1285
1189
1227
1232
1261
1260
1283
1271
1258
1306
1264
1254
1259
1250
1286
1369
1291
1235
1258
1264
1300
1262
1287
1248
1274
1360
1325
1255
1301
1271
1269
1316
1334
1230
1278
1298
1341
1390
1293
1296
1296
1315
1282
1317
1312
1311
1386
1366
1303
1307
1333
1333
1321
1312
1257
1254
1253
1247
1263
1328
1251
1280
1263
1278
1287
1201
1240
1239
1174
1200
1200
1093
1140
1107
1136
1088
1181
1085
1082
1168
1075
1058
1021
1023
1023
1067
1082
1072
1075
1077
1104
1088
1077
1023
1055
1104
1041
999
1063
1072
1067
1073
1056
1121
1185
1165
1200
1168
1058
1039
1058
1047
1088
1015
1088
1088
1067
1164
1124
1131
1150
1212
1023
962
1104
1170
1228
1221
1202
1111
1084
1094
1104
1142
1189
1150
1145
1123
1124
1106
1171
1117
1135
1150
1152
1153
1281
1239
1232
1192
1120
1087
1163
1062
1136
1170
1223
1234
1222
1168
1115
1107
1141
1159
1129
1168
1200
1159
1181
1137
1179
1167
1175
1158
1183
1251
1193
1094
1104
1254
1157
1200
1136
1153
1241
1236
1178
1234
1218
1215
1159
1255
1179
1163
1125
1121
1120
1165
1232
1235
1200
1198
1186
1235
1247
1216
1262
1081
978
1005
1162
1168
1237
1238
1201
1210
1093
1136
1232
1168
1165
1131
1160
1130
1123
1264
1201
1146
1135
1167
1155
1142
1143
1167
1209
1269
1294
1285
1296
1197
1326
1158
1191
1211
1191
1206
1185
1168
1170
1192
1229
1263
1168
1077
1178
1258
1277
1170
1136
1173
1205
1229
1195
1155
1070
1146
1170
1139
1139
1103
1110
1143
1106
1142
1182
1152
1167
1203
1138
1136
1243
1145
1168
1203
1184
1141
1121
1195
1119
1147
1149
1173
1151
1360
1411
1358
1334
1328
1296
1118
1094
1051
1125
1285
1261
1101
1008
1118
1088
1102
1095
1104
1152
1124
860
803
789
794
816
837
871
913
994
1071
1213
1257
1136
1249
1314
970
1177
1225
1334
1168
1207
1246
1226
1258
1226
1301
1275
1278
1258
1232
1210
1215
1184
1179
1210
1262
1309
1273
1258
1301
1289
1247
1230
1243
1292
1422
1280
1095
1146
1200
1283
1314
1298
1214
1225
1138
1245
1278
1315
1231
1255
1178
1183
1322
1215
1200
1234
1339
1284
1294
1327
1297
1277
1278
1141
1197
1168
1244
1302
1258
1312
1277
1237
1293
1328
1296
1275
1306
1289
1296
1282
1285
1373
1319
1299
1295
1414
1344
1392
1434
1383
1385
1370
1344
1293
1255
1330
1354
1375
1394
1291
1360
1296
1212
1307
1184
1162
1220
1177
1069
1168
1241
1292
1260
1235
1153
1246
1250
1220
1068
1036
1060
1005
999
1130
1082
1072
1045
1167
992
1126
1150
1157
1168
1072
1058
988
976
973
1036
1059
986
1008
1120
1104
1088
1114
1109
1168
1139
1034
1070
1072
1063
1040
1059
1053
1113
1040
1121
1200
1136
1217
1254
1095
1012
1063
1146
1191
1162
1165
1104
1157
1125
1075
1121
1119
1168
1088
1182
1157
1104
1149
1221
1211
1180
1216
1155
1103
1068
1134
1247
1238
1168
1152
1214
1271
1107
1162
1127
1131
1195
1119
1166
1181
1154
1227
1157
1188
1210
1138
1217
1141
1201
1264
1223
1091
1179
1197
1151
1223
1166
1185
1136
1170
1134
1106
1139
1209
1121
1263
1183
1193
1122
1187
1159
1052
1136
1146
1138
1201
1254
1211
1119
999
1167
1262
1169
1232
1223
1226
1238
1157
1200
1174
1201
1194
1154
1143
1175
1185
1136
1146
1213
1232
1213
1162
1186
1142
1136
1123
1168
1167
1210
1216
1168
1147
1139
1139
1185
1133
1323
1306
1248
1193
1255
1301
1269
1232
1300
1265
1209
1094
1152
1061
1104
1189
1150
1216
1221
1223
1227
1157
1200
1099
1142
1071
1104
1191
1197
1184
1169
1201
1175
1150
1095
1193
1195
1187
1156
1242
1291
1173
1168
1165
1147
1216
1278
1190
1190
1210
1313
1279
1285
1294
1325
1250
1178
1167
1138
1203
1264
1162
1135
1093
1051
1121
1167
1117
1122
1147
976
1104
939
867
848
788
889
912
966
1020
1040
1123
1145
1190
1187
1208
1207
1311
1222
1202
1295
1327
1206
1238
1136
1183
1259
1264
1263
1266
1232
1270
1200
1201
1249
1259
1137
1180
1275
1259
1249
1296
1289
1293
1283
1181
1242
1313
1328
1342
1225
1254
1278
1255
1281
1252
1209
1234
1312
1205
1214
1265
1284
1266
1296
1222
1217
1266
1248
1229
1251
1245
1252
1253
1265
1299
1286
1286
1339
1252
1264
1250
1257
1220
1244
1297
1246
1296
1296
1314
1264
1295
1266
1263
1297
1289
1247
1296
1418
1392
1293
1259
1354
1403
1429
1380
1393
1283
1247
1255
1251
1264
1250
1312
1262
1296
1209
1275
1302
1247
1193
1120
1168
1199
1228
1135
1091
1182
1175
1220
1193
1162
1094
1019
1107
1117
1023
1057
1088
1158
1156
1072
970
1081
1105
1021
1124
1082
1089
1072
1017
1001
967
1010
1065
1072
1174
1178
1151
1094
1104
1101
1120
1157
1036
1040
1009
1155
1126
1013
1100
1043
1040
1070
1143
1213
1127
1223
1040
1079
1115
1054
1085
1105
1137
1196
1189
1127
1135
1148
1168
1194
1178
1168
1199
1226
1162
1181
1147
1104
1161
1135
1198
1086
1008
1125
1200
1238
1207
1243
1217
1210
1203
1155
1105
1058
1133
1219
1217
1207
1195
1119
1115
1216
1174
1202
1224
1194
1191
1165
1175
1118
1136
1153
1143
1099
1161
1139
1200
1191
1177
1250
1245
1153
1166
1117
1159
1175
1168
1145
1130
1194
1102
1165
1243
1287
1163
1251
1155
1150
1209
1243
1227
1167
1191
1218
1223
1183
1179
1222
1271
1215
1235
1149
1235
1111
1219
1158
1182
1122
1166
1159
1178
1079
1092
1114
1119
1082
1202
1232
1275
1253
1134
1097
1125
1134
1172
1212
1202
1177
1204
1118
1167
1149
1130
1102
1173
1175
1134
1123
1218
1242
1215
1259
1248
1249
1247
1298
1274
1306
1200
1073
1079
1157
1169
1151
1212
1096
1147
1120
1163
1198
1232
1165
1005
893
820
789
852
837
935
950
912
905
985
1086
1225
1168
1072
1139
1344
1232
1200
1265
1251
1192
1249
1295
1310
1226
1245
1323
1281
1255
1296
1262
1341
1316
1265
1219
1207
1278
1297
1195
1195
1169
1227
1271
1266
1142
1259
1280
1200
1277
1283
1343
1378
1291
1193
1168
1220
1255
1286
1247
1293
1307
1264
1306
1281
1232
1259
1225
1321
1322
1215
1248
1213
1251
1280
1283
1277
1205
1290
1296
1282
1131
1214
1301
1391
1326
1327
1318
1424
1249
1245
1323
1383
1259
1229
1351
1200
1333
1367
1281
1243
1328
1288
1360
1310
1359
1328
1349
1321
1313
1263
1258
1278
1345
1216
1273
1314
1211
1278
1154
1144
1275
1182
1254
1211
1104
1122
1173
1168
1095
962
1040
1143
1104
1060
1121
1082
1085
1104
1101
1120
1075
1100
1023
1014
1002
1039
1047
1049
1094
1171
1129
1093
1081
1053
1072
1036
1040
1019
1052
1145
1152
1066
1078
1057
1085
1127
1121
1219
1136
1061
1056
966
1102
1151
1187
1158
1126
1087
1129
1216
1207
1186
1164
1111
1159
1089
1135
1150
1216
1128
1245
1182
1111
1140
1104
1097
1138
1207
1264
1266
1221
1200
1157
1073
1189
1037
1069
1140
1190
1163
1170
1200
1219
1168
1202
1170
1207
1195
1185
1163
1199
1164
1136
1136
1183
1153
1142
1235
1165
1225
1200
1170
1192
1107
1168
1220
1249
1212
1044
1104
1119
1090
1101
1090
1159
1211
1188
1252
1195
1217
1222
1277
1265
1254
1143
1110
1114
1081
1159
1212
1136
1198
1189
1170
1264
1289
1232
1151
1229
1185
1129
1126
1152
1136
1088
1162
1277
1260
1268
1254
1315
1280
1159
1231
1229
1229
1264
1198
1232
1220
1174
1235
1250
1231
1187
1185
1191
1162
1136
1122
1160
1137
1180
1203
1222
1145
1125
1059
1047
1076
1169
1257
1070
1253
1127
1067
1186
1214
1173
1215
1228
1206
1197
1136
1164
1146
1168
1202
1136
1107
1117
1210
1168
1214
1295
1402
1335
1369
1295
1232
1218
1168
1153
1104
1148
1157
1088
1134
1094
1175
1182
1143
1092
1069
1116
1063
730
723
775
917
847
846
813
930
848
1116
1230
1255
1287
1303
1312
1219
1291
1178
1246
1234
1328
1282
1307
1211
1188
1302
1275
1288
1312
1247
1257
1253
1271
1302
1267
1312
1288
1168
1142
1126
1088
1247
1225
1268
1342
1367
1268
1275
1289
1235
1282
1288
1242
1225
1258
1247
1216
1296
1360
1278
1189
1217
1202
1215
1221
1234
1197
1250
1245
1264
1391
1262
1295
1294
1230
1062
1123
1264
1279
1214
1275
1323
1215
1251
1251
1238
1344
1279
1318
1332
1333
1329
1296
1357
1339
1295
1255
1230
1239
1312
1291
1338
1324
1334
1344
1291
1305
1241
1338
1338
1310
1220
1297
1379
1217
1264
1254
1251
1221
1264
1198
1206
1197
1152
1095
1195
1194
1169
1132
1043
1131
1054
1080
1117
1072
1097
1031
1012
1065
1098
1102
1146
1163
1104
1150
1078
1040
1055
1001
1008
1077
1062
1117
1105
1166
1104
1110
1074
1071
1090
1122
912
1232
1251
1147
1020
1015
1109
1020
1101
1023
1097
1126
1178
1185
1186
1104
1104
1149
1103
1118
1104
1117
1123
1091
1086
1175
1104
1157
1123
1095
1097
1118
1237
1277
1235
1227
1252
1181
1218
1131
1177
1137
1158
1164
1119
1234
1281
1210
1261
1328
1279
1264
1218
1168
1122
1134
1103
1078
1143
1161
1205
1137
1154
1172
1207
1130
1180
1168
1288
1156
1150
1149
1179
1008
1200
1227
1200
1211
1238
1152
1152
1146
1200
1200
1260
1168
1131
1087
1117
1164
1147
1200
1111
1127
1185
1214
1169
1235
1090
1167
1195
1191
1257
1155
1221
1110
1182
1229
1219
1168
1233
1246
1247
1107
1125
1177
1200
1265
1268
1191
1175
1238
1282
1269
1225
1263
1318
1264
1264
1239
1052
1126
1206
1037
1189
1178
1109
1168
1202
1150
1216
1200
1200
1055
1159
1072
1188
1281
1115
1161
1149
1123
1181
1072
1129
1168
1185
1174
1129
1187
1234
1157
1198
1223
1173
1126
1113
1111
1274
1217
1201
1241
1314
1341
1325
1323
1283
1299
1081
1153
1047
1072
1103
1115
1070
1136
1191
1173
1126
1087
1211
1137
1040
909
829
700
758
731
822
939
900
1034
1102
1200
1147
1152
1249
1230
1266
1274
1253
1207
1231
1291
1337
1300
1160
1257
1211
1265
1242
1246
1213
1220
1267
1264
1215
1257
1259
1244
1244
1274
1290
1281
1312
1323
1297
1250
1212
1195
1212
1171
1241
1231
1286
1210
1259
1232
1275
1245
1259
1258
1281
1210
1264
1211
1242
1299
1260
1187
1307
1298
1397
1278
1234
1259
1281
1203
1280
1301
1251
1328
1287
1274
1306
1263
1264
1209
1328
1281
1264
1285
1298
1369
1334
1305
1359
1337
1404
1318
1285
1274
1382
1314
1274
1250
1275
1232
1366
1323
1296
1325
1280
1383
1344
1369
1328
1197
1146
1258
1295
1203
1137
1167
1173
1216
1200
1214
1248
1162
1091
1092
1132
1091
1139
1057
1098
1109
1036
1044
1055
1068
1010
1034
1106
1175
1086
1056
1023
1085
1031
1014
999
1030
1073
1107
1109
1102
1065
1040
1172
1153
1200
1098
1068
1079
1059
1015
1122
1156
1189
1178
1134
1043
1066
1089
1102
1105
1169
1114
1115
1088
1116
1170
1114
1163
1160
1165
1134
1123
1123
1137
1157
1156
1138
1119
1183
1205
1195
1136
1088
1120
1213
1221
1154
1089
1113
1154
1215
1168
1117
1116
1104
1136
1152
1102
1119
1104
1220
1275
1243
1221
1215
1171
1101
1169
1245
1206
1169
1163
1206
1159
1157
1169
1178
1156
1186
1170
1110
1136
1200
1217
1168
1168
1082
1134
1150
1169
1187
1191
1177
1214
1145
1136
1218
1168
1155
1217
1220
1233
1137
1152
1157
1030
1133
1154
1039
1160
1187
1187
1248
1303
1230
1226
1159
1191
1168
1157
1117
1242
1190
1229
1189
1299
1227
1230
1182
1236
1241
1174
1183
1168
1233
1217
1264
1217
1184
1071
1082
1093
1083
1104
1207
1280
1211
1196
1178
1229
1155
1077
1138
1185
1202
1271
1171
1185
1168
1089
1113
1154
1153
1168
1102
1158
1108
1166
1262
1181
1093
1162
1104
1218
1295
1263
1326
1296
1251
1264
1189
1168
1122
1137
1216
1142
1143
1159
1146
1088
1134
1229
1158
1168
1171
1040
982
848
830
716
909
860
975
923
1008
962
1023
1104
1222
1264
1199
1287
1292
1238
1182
1119
1134
1238
1258
1198
1243
1263
1215
1233
1198
1230
1284
1259
1187
1310
1327
1245
1423
1329
1322
1246
1299
1252
1187
1261
1135
1106
1307
1234
1291
1271
1309
1228
1212
1314
1234
1319
1251
1269
1232
1266
1235
1242
1265
1242
1293
1259
1233
1285
1282
1226
1202
1138
1226
1258
1219
1242
1200
1306
1287
1329
1280
1281
1283
1245
1264
1287
1280
1348
1379
1397
1323
1215
1250
1355
1302
1248
1216
1264
1328
1347
1371
1376
1346
1317
1410
1263
1255
1252
1289
1284
1254
1177
1201
1245
1254
1328
1309
1268
1229
1199
1169
1191
1158
1154
1205
1181
1117
1114
1134
1073
1133
1076
1114
1056
1115
1068
1099
1083
1038
1121
1105
1053
1063
1090
1099
1072
1074
1084
1104
1182
1100
1041
1088
1010
1040
1063
1040
1088
1155
1083
1065
1083
1164
1168
1092
1083
1129
1168
1193
1127
1088
1023
979
1177
1197
1158
1062
1085
1178
1148
1133
1139
1227
1168
1136
1098
1104
1104
1139
1173
1119
1135
1109
1127
1203
1102
1222
1168
1228
1095
1154
1168
1243
1262
1271
1246
1293
1184
1168
1074
1203
1175
1157
1177
1217
1233
1232
1168
1087
1092
1114
1134
1099
1150
1206
1213
1280
1153
1161
1205
1113
1202
1114
1129
1193
1238
1201
1198
1238
1233
1130
1088
1175
1174
1123
1244
1226
1277
1189
1116
1218
1133
1150
1110
1123
1183
1200
1156
1131
1159
1185
1187
1158
1168
1156
1213
1260
1230
1130
1248
1136
1250
1227
1170
1161
1279
1230
1230
1254
1245
1191
1153
1135
1134
1197
1177
1132
1123
1136
1152
1205
1242
1229
1203
1155
1125
1203
1177
1164
1216
1194
1005
1084
1108
1200
1078
1119
1173
1175
1171
1157
1187
1203
1200
1232
1214
1214
1199
1157
1213
1162
1171
1218
1217
1270
1326
1289
1269
1220
1216
1173
1090
1166
1086
1088
1092
1123
1199
1136
1119
1168
1256
1127
1061
971
956
869
789
786
863
924
911
901
967
1071
1115
1190
1196
1263
1225
1215
1198
1186
1279
1296
1283
1296
1275
1282
1305
1307
1262
1265
1202
1152
1269
1349
1179
1275
1218
1293
1271
1264
1225
1168
1203
1206
1344
1360
1230
1232
1232
1216
1201
1236
1200
1253
1188
1204
1222
1224
1251
1312
1234
1302
1281
1227
1248
1316
1298
1200
1291
1314
1348
1291
1116
1122
1332
1232
1249
1264
1282
1230
1286
1291
1309
1339
1323
1355
1314
1274
1248
1206
1279
1310
1328
1294
1243
1261
1294
1335
1358
1335
1361
1371
1317
1223
1201
1227
1287
1303
1333
1391
1385
1305
1263
1312
1296
1265
1232
1299
1254
1155
1232
1163
1168
1159
1130
1223
1297
1273
1152
1072
1061
1099
1200
1093
1146
1153
1092
1075
1002
1005
1119
1137
1063
1087
976
964
1004
1023
1091
1047
1123
1145
983
1118
1081
1008
1151
1046
1042
1092
1139
1091
1130
1142
1104
1040
1051
1136
1090
1109
1142
1083
1114
1100
1104
1109
1044
1136
1106
1117
1108
1122
1160
1133
1140
1122
1103
1099
1042
1102
1273
1231
1135
1218
1139
1078
1166
1211
1195
1145
1136
1162
1129
1122
1247
1200
1159
1142
1121
1232
1226
1136
1120
1143
1189
1191
1125
1165
1136
1162
1166
1196
1228
1199
1082
1169
1200
1146
1124
1187
1135
1102
1159
1121
1146
1198
1126
1094
1097
1144
1200
1207
1232
1213
1116
1122
1085
1103
1091
1119
1099
1073
1159
1194
1138
1139
1171
1206
1157
1101
