1295,1310,1296,1349,1296,1230,1232,1246,1093,1040,1023,1126,1057,1012,1170,1011,1021,982,1014,1063,976,1043,960,963,930,1168,992,962,1069,1050,959,1031,940,1034,1011,1047,1052,963,995,1061,1063,1078,1072,1053,1139,938,1049,960,1177,1094,1069,1136,1078,1160,1147,1104,1058,1054,1146,1077,1008,1123,1111,1093,1077,1128,1104,1118,1098,1046,1147,1196,1175,1115,1097,1161,1183,1121,1093,1159,1171,1213,1185,1183,1187,1195,1196,1158,1079,1136,1137,1107,1137,1249,1249,1279,1232,1149,1157,1281,1200,1278,1237,1222,1200,1239,1194,1200,1095,1104,1200,1227,1230,1232,1216,1230,1298,1266,1293,1215,1246,1232,1326,1292,1264,1251,1299,1351,1310,1290,1137,1158,1182,1251,1253,1252,1213,1131,1115,1169,1197,1161,1221,1294,1231,1194,1173,1230,1205,1287,1223,1154,1133,1207,1175,1274,1203,1152,1188,1215,1167,1231,1280,1232,1173,1136,1111,1097,1095,1125,1182,1164,1152,1283,1246,1134,1136,1164,1268,1104,1088,1095,1136,1390,1189,1587,1775,1971,2237,2381,2481,2534,2559,2707,2834,2682,2204,1693,1485,1356,1155,925,720,592,599,624,631,671,618,539,572,592,752,816,879,967,1067,1023,1043,1132,1105,1069,1091,1138,1084,1015,1088,1143,1126,1107,1185,1237,1219,1143,1114,1073,1120,1287,1335,1253,1230,1183,1133,1186,1191,1263,1185,1152,1231,1184,1071,1088,1131,1216,1269,1264,1157,1191,1330,1254,1138,1201,1088,1158,1258,1357,1252,1239,1231,1236,1218,1341,1414,1364,1316,1265,1325,1333,1334,1310,1333,1243,1287,1440,1395,1369,1365,1385,1319,1343,1309,1383,1406,1456,1447,1462,1392,1328,1383,1510,1422,1402,1372,1527,1522,1495,1447,1420,1414,1424,1421,1397,1383,1385,1457,1532,1467,1297,1413,1511,1535,1296,1326,1553,1501,1104,1067,1296,1250,1238,1079,1094,1285,1361,1167,1203,1159,1258,1215,1124,1008,1168,1150,1211,1073,1081,980,924,921,986,1131,1161,1113,1040,1069,1051,1040,1023,953,1053,943,1007,1051,1133,1104,1113,1133,1036,999,992,992,1079,1183,1155,1194,1273,1216,1201,1143,1102,1200,1210,1106,1023,1106,1010,1151,1175,1127,1105,1207,1264,1139,1140,1170,1262,1392,1326,1267,1088,1091,1238,1063,1166,1237,1151,1040,1019,1135,1302,1319,1147,1046,1135,1170,1333,1328,1230,1210,1104,1121,1201,1264,1178,1194,1173,1068,1068,1054,1363,1505,1397,1344,1235,1182,1267,1168,1161,1007,988,1081,1322,1330,1225,1302,1373,1493,1411,1319,1296,1323,1310,1285,1334,1278,1168,1105,1049,1443,1145,1259,1279,1375,1149,1188,1282,1281,1239,1169,1197,1307,1264,1257,1296,1221,1157,1197,1188,1223,1227,1194,1243,1293,1150,1155,1251,1151,1200,1360,1338,1234,1153,1169,1344,1349,1207,1200,1240,1231,1114,1141,1166,1232,1226,1178,1217,1317,1309,1402,1705,1501,1865,1992,2401,2178,2431,2634,2780,2776,2590,2215,1872,1559,1327,1085,845,653,601,661,694,652,680,743,690,782,797,768,795,849,832,679,811,1127,1231,1106,1135,1101,1077,1097,1156,1118,1040,1163,1040,1294,1292,1136,1175,1131,1210,1175,1056,993,1018,1203,1040,1002,1216,1295,1235,1264,1233,1209,1205,1182,1075,997,1002,1047,1014,1023,1103,1085,1200,1392,1054,1383,1319,1197,1099,1058,1078,1041,1007,1232,1334,1469,1321,1211,1175,1182,1193,1173,1168,1139,1201,1343,1417,1415,1261,1282,1215,1241,1223,1178,1392,1377,1358,1314,1317,1394,1362,1311,1367,1290,1440,1328,1314,1388,1477,1408,1302,1232,1311,1531,1456,1506,1439,1418,1369,1205,1293,1197,1406,1286,1237,1318,1366,1344,1287,1322,1297,1278,1220,1139,1161,1119,1110,1014,1075,1040,1110,1075,1075,1005,1023,1050,1075,1073,1141,982,867,681,848,1171,1008,942,1008,1072,1069,1088,1142,1057,1037,983,1043,1043,959,938,916,954,863,1023,1140,1090,1156,1229,1225,1375,1329,1037,987,1073,1071,1108,1140,1252,1250,1165,1091,1041,1117,1185,1163,1224,1273,1199,1088,1055,1117,1088,1033,1006,1123,1237,1202,1181,1200,1261,1216,1197,1187,1235,1213,1141,1072,1075,1153,1159,1141,1216,1197,1160,1211,1282,1154,1168,1213,1184,1269,1291,1168,1200,1141,1107,1085,1181,1126,1220,1263,1168,1258,1253,1366,1389,1312,1327,1228,1269,1295,1257,1220,1146,1154,1136,1141,1350,1265,1252,1119,1077,1178,1202,1246,1085,1073,1118,1168,1160,1127,1124,1106,1278,1072,1043,1225,932,1106,1145,1115,1034,1073,1165,1184,1047,983,1156,1117,1039,1035,1171,1090,1205,1136,1057,1085,1158,1157,1087,1099,1116,1129,1073,1070,942,968,1201,1342,1454,1599,1767,1838,2043,2338,2343,2624,2608,2480,2263,2427,2107,1609,1275,935,735,689,565,464,447,458,478,489,599,644,733,731,687,735,905,887,876,833,994,888,880,930,1177,1036,1073,1009,1057,1095,1150,959,1153,1061,1041,977,1066,1046,1104,1132,1229,1133,1200,1062,1039,1154,1011,1038,1040,1010,1086,1123,1220,1167,1118,1051,1107,1147,1215,1197,1291,1108,1199,1271,1217,1100,1119,1223,1151,1190,1200,1104,1101,1088,1342,1334,1291,1179,1269,1194,1306,1231,1283,1213,1201,1309,1153,1158,1266,1296,1200,1333,1426,1391,1200,1415,1439,1473,1414,1383,1418,1435,1424,1377,1350,1367,1413,1393,1475,1359,1414,1365,1346,1478,1424,1250,1313,1416,1281,1360,1364,1355,1244,1371,1392,1430,1340,1280,1258,1207,1152,1127,1140,1073,1127,1089,1058,1108,1072,1058,854,1045,1045,944,858,1037,928,1097,939,1161,1023,848,981,869,880,1014,878,931,1023,1049,1040,1135,1069,975,848,1015,1014,843,826,987,945,1099,863,1054,933,947,1072,947,1182,1088,1134,1042,1071,978,900,1082,1113,1122,1198,1072,1202,1131,944,986,1089,1063,1040,1168,1145,1302,924,1158,1062,884,1176,1199,1136,1081,1163,1131,1007,1162,1200,1187,1083,1133,1041,1232,1105,1242,1200,1227,969,1048,1121,1118,1063,1043,1135,1134,1188,1154,1183,912,1214,1210,1172,1061,1147,1125,1262,1212,1258,1204,1232,1176,1171,1126,1150,1206,1344,1259,1192,1232,1168,1185,1264,1286,1197,1174,1149,1200,1222,1174,1198,1147,1188,1178,1199,1190,1107,1137,1288,1218,1167,1154,1151,1198,1201,1187,1104,1101,1122,1200,1109,1120,1073,1151,1159,1205,1150,1200,1121,1250,1231,1072,1073,1074,1140,1146,1088,1142,1204,1233,1222,1166,1200,1125,1093,1142,1227,1253,1121,1189,1068,1068,1102,1073,1104,1032,1317,1653,1505,1843,2032,2186,2265,2384,2407,2537,2681,2624,2374,1836,1453,1200,1023,803,695,686,640,503,505,602,629,680,735,689,804,848,823,797,854,1038,1061,1118,1023,1008,986,986,1008,1040,1089,979,1057,1104,1164,1072,1051,1184,1133,1118,1104,1072,1034,1110,1282,1264,1235,1104,1008,1061,1023,1075,1062,1074,1154,1221,1199,1120,1231,1023,1200,1070,1129,1051,1213,1365,1023,1359,1220,1197,1253,1301,1198,1137,1226,1244,1296,1235,1247,1200,1235,1238,1166,1291,1372,1283,1307,1186,1295,1308,1328,1403,1353,1343,1328,1408,1355,1178,1185,1297,1370,1469,1467,1452,1344,1438,1392,1411,1424,1457,1355,1393,1412,1535,1525,1501,1465,1355,1438,1455,1461,1371,1332,1450,1360,1271,1280,1302,1329,1357,1409,1312,1226,1214,1213,1182,1146,1127,1205,1035,1109,1153,1072,1040,1085,1086,1022,914,941,982,1040,1012,1015,991,912,946,877,907,938,912,1091,1007,982,1072,997,1105,1102,1034,1010,1017,1035,1058,1013,1091,1069,1023,1060,1057,1071,914,942,1072,1263,1179,1033,1105,1091,1100,997,1077,1089,1129,1117,1111,1072,1111,1108,1104,1076,1070,1084,1169,1051,1070,1208,1200,1119,1104,1136,1138,1121,1077,1056,1137,1171,1225,1135,1152,1137,1141,1163,1095,1101,1081,1174,1226,1134,1082,1106,1167,1157,1099,1090,1166,1090,1168,1206,1217,1244,1155,1217,1186,1188,1109,1107,1140,1144,1165,1152,1187,1149,1185,1136,1199,1200,1233,1223,1290,1216,1143,1140,1072,1081,1113,1166,1307,1297,1313,1203,1233,1274,1312,1213,1248,1228,1287,1179,1124,1058,1200,1107,1040,1200,1243,1238,1121,1102,1141,1182,1119,1130,1152,1197,1266,1198,1064,1152,1199,1232,1055,1022,1070,1166,1130,1169,1232,1223,1211,1169,1147,1137,1157,1179,1084,1101,1156,1205,1104,1072,1116,1168,1087,1050,1134,1277,1489,1630,1726,1909,2077,2250,2401,2364,2396,2445,2419,1822,2163,1251,1526,986,713,605,627,677,743,711,670,593,608,656,717,741,758,887,822,672,919,923,928,1044,1117,1018,1021,1065,1061,1054,1065,1094,1106,1153,1116,1120,1127,1159,1136,1125,1088,1152,1078,1083,1110,1130,1122,1134,1077,1209,1121,1151,1264,1163,1129,1089,1040,1082,1137,1167,1090,1119,1154,1250,1338,1175,1071,1119,1181,1264,1207,1203,1129,1193,1165,1238,1289,1179,1136,1146,1152,1264,1257,1219,1200,1303,1264,1344,1214,1263,1298,1211,1323,1201,1186,1262,1297,1299,1404,1427,1331,1298,1327,1479,1498,1426,1418,1423,1434,1438,1319,1261,1293,1404,1489,1425,1360,1327,1325,1315,1373,1360,1345,1335,1341,1311,1345,1232,1358,1314,1168,1157,1242,1093,1108,1095,1147,1113,1066,1079,1188,1101,1071,1033,1008,1005,944,953,982,1056,992,915,861,838,912,909,985,1016,1047,863,848,924,1017,946,1040,959,947,891,963,1043,1037,958,922,1033,1047,1070,1073,976,992,1044,1040,1008,961,955,1011,1069,1040,1094,1104,1062,1056,1023,975,1081,1083,1078,1067,1023,1058,1138,1118,1058,1102,1042,1117,1124,1091,1072,1147,1097,1136,1152,1135,1133,1121,1101,1106,1083,1082,1087,1126,1163,1141,1077,1086,1068,1088,1129,1104,1133,1067,1042,1115,1117,1147,1093,1119,1047,1056,1071,1061,1011,1126,1062,1135,1088,1059,931,1215,1219,1042,1109,1104,1153,1149,1145,1121,1153,1211,1117,1136,1074,1059,1137,1174,1143,1135,1086,1071,1184,1200,1168,1153,1132,1047,1147,1152,1135,1274,1220,1157,1162,1139,1141,1216,1217,1203,1174,1153,1171,1170,1201,1179,1189,1189,1162,1178,1164,1140,1098,1172,1130,1166,1111,1122,1093,1137,1167,1184,1152,1101,1104,1054,1079,1079,1098,1072,1127,1048,1023,1162,1211,1119,1141,1151,1206,1130,1157,1184,1149,1115,1202,1210,1205,1082,1153,1126,1134,994,1107,1147,1179,1232,1367,1574,1758,1931,2290,2098,2190,2363,2427,2535,2361,2559,1966,1634,1425,1121,889,816,635,465,409,475,525,551,539,678,784,765,724,867,773,887,883,1008,909,879,983,1040,962,1070,1045,1094,1181,1091,1072,1041,1136,988,1136,1136,1051,1114,1091,1073,1052,1015,1163,1097,1124,1127,1058,1131,1085,1148,1175,1170,1232,1183,1121,1109,1152,1105,1133,1143,1185,1123,1087,1154,1229,1142,1211,1170,1224,1155,1204,1195,1166,1141,1188,1213,1229,1143,1181,1245,1270,1270,1236,1207,1232,1328,1259,1215,1268,1346,1374,1275,1302,1295,1324,1440,1349,1405,1360,1296,1303,1434,1482,1437,1386,1438,1397,1308,1362,1465,1450,1431,1488,1429,1312,1313,1439,1437,1431,1412,1393,1385,1469,1244,1264,1330,1342,1329,1296,1332,1301,1275,1282,1207,1164,1156,1109,1115,1104,1053,1103,980,1011,949,1145,1114,1019,932,946,963,888,957,1023,1046,887,938,956,1009,1080,1013,1042,931,982,903,1041,1067,1008,976,996,997,1061,979,1007,982,997,1008,1061,1126,958,946,971,1118,1086,1040,974,1046,1097,1104,1146,1109,1147,1065,1013,1134,1099,1183,1099,1068,1086,1136,1110,1114,1138,1105,1090,1083,1069,1194,1189,1168,1168,1122,1121,1064,1140,1113,1138,1089,1091,1072,1141,1179,1149,1145,1086,1136,1282,1288,1271,1225,1154,1088,1107,1097,1168,1262,1143,1119,1159,1167,1168,1104,1162,1193,1175,1135,1149,1107,1139,1117,1109,1157,1161,1174,1191,1258,1136,1106,1073,1189,1234,1237,1255,1232,1184,1307,1251,1229,1169,1228,1118,1136,1200,1230,1171,1269,1200,1180,1212,1255,1257,1199,1153,1198,1259,1309,1210,1197,1236,1330,1269,1267,1179,1245,1259,1266,1242,1237,1229,1254,1174,1215,1248,1217,1214,1203,1155,1118,1106,1229,1133,1147,1138,1141,1249,1184,1219,1187,1183,1188,1136,1166,1091,1066,1152,1271,1289,1219,1210,1255,1190,1152,1173,1165,1232,1274,1185,1149,1161,1152,1178,1133,1200,1158,1165,1424,1582,1358,1802,1970,2180,2324,2393,2391,2462,2583,2532,2275,1855,1568,1296,1158,930,708,613,578,590,601,613,650,704,755,749,688,813,866,986,1058,1169,1162,1087,1060,944,976,1048,1174,1157,1072,1105,1149,1164,1158,1083,1182,1157,1225,1200,1152,1137,1104,1047,1059,1200,1191,1111,1085,1136,1294,1165,1231,1125,1110,1165,1231,1173,1232,1226,1260,1232,1216,1131,1193,1152,1186,1190,1223,1267,1373,1379,1265,1277,1230,1240,1239,1198,1207,1251,1289,1254,1254,1301,1330,1226,1233,1312,1341,1266,1327,1392,1364,1302,1370,1342,1364,1350,1359,1402,1454,1360,1441,1450,1447,1409,1463,1394,1329,1374,1425,1497,1456,1436,1443,1393,1470,1535,1447,1375,1361,1472,1425,1422,1310,1348,1341,1348,1375,1280,1325,1364,1377,1307,1264,1200,1261,1217,1110,1090,1133,1118,1104,1097,1072,1008,1010,1095,1117,1152,1121,1040,1020,1070,1040,1008,1011,994,915,988,945,1039,989,976,974,1035,1002,979,1045,1019,1010,1012,1002,1042,1035,1131,1168,1126,1101,1107,1158,1090,1092,1153,1107,1210,1137,1078,1076,1189,1216,1142,1179,1154,1152,1147,1153,1130,1124,1207,1215,1245,1223,1219,1114,1083,1074,1070,1150,1242,1113,1188,1127,1127,1104,1235,1222,1227,1245,1216,1229,1178,1180,1191,1086,1083,1097,1168,1256,1222,1180,1161,1161,1168,1199,1136,1156,1181,1110,1226,1089,1261,1225,1143,1107,1138,1154,1165,1120,1147,1133,1186,1264,1279,1250,1232,1214,1183,1212,1310,1317,1157,1143,1214,1283,1222,1255,1254,1178,1231,1277,1263,1238,1154,1169,1170,1183,1211,1249,1191,1171,1255,1330,1259,1207,1253,1295,1298,1324,1293,1278,1247,1107,1178,1250,1190,1200,1194,1252,1264,1275,1220,1201,1167,1103,1062,1165,1181,1092,1086,1214,1242,1179,1210,1071,1116,1312,1235,1179,1147,1168,1168,1247,1252,1232,1229,1179,1205,1162,1196,1075,1113,1130,1191,1140,1217,1195,1152,1151,1174,1168,1236,1316,1377,1586,1824,1918,2065,2304,2355,2343,2384,2477,2527,2362,1581,1315,1968,1153,1008,720,684,858,590,668,727,686,682,735,772,789,871,964,914,914,955,1021,1056,1067,1069,1038,995,1023,1122,1216,1140,1151,1118,1152,1138,1152,1102,1253,1329,1202,1127,1157,1200,1181,1211,1184,1171,1184,1200,1181,1184,1159,1133,1153,1186,1164,1166,1168,1146,1249,1187,1149,1149,1168,1255,1183,1208,1210,1208,1268,1283,1374,1303,1392,1241,1281,1287,1333,1307,1294,1323,1282,1291,1265,1264,1227,1264,1312,1300,1306,1296,1307,1356,1389,1350,1432,1371,1458,1414,1473,1444,1488,1495,1371,1351,1369,1414,1376,1455,1445,1489,1458,1451,1444,1420,1453,1496,1451,1328,1308,1355,1409,1402,1410,1427,1392,1404,1438,1370,1282,1197,1264,1200,1223,1278,1104,1061,1134,1262,1200,1203,1123,1126,1130,1086,982,1135,1037,1001,1106,971,965,941,1104,1071,947,955,1008,1067,1041,1041,1018,1107,1078,1087,999,976,1018,895,879,992,1127,1136,1053,998,1052,1046,1075,1137,1076,1077,1070,1117,1058,1150,1037,1076,1065,1092,1088,1085,1216,1171,1068,1021,1040,1082,1218,1130,1142,1209,1133,1104,1073,1104,1201,1185,1167,1089,1230,1126,1181,1207,1234,1252,1142,1088,1155,1070,1082,1161,1204,1104,1156,1222,1217,1134,1139,1125,1104,1170,1199,1167,1172,1130,1073,1088,1106,1114,1104,1158,1165,1196,1116,1140,1232,1239,1232,1220,1213,1148,1136,1125,1166,1130,1153,1197,1118,1104,1334,1168,1328,1213,1197,1225,1150,1151,1181,1106,1164,1202,1167,1206,1170,1273,1280,1199,1173,1145,1170,1072,1216,1035,1228,1315,1391,1226,1203,1318,1215,1139,1262,1321,1379,1286,1266,1283,1296,1209,1125,1200,1177,1265,1297,1234,1306,1153,1093,1133,1143,1175,1161,1195,1216,1207,1145,1067,1090,1135,1156,1232,1167,1280,1225,1172,1137,1083,1103,1171,1252,1107,1185,1159,1167,1172,1257,1199,1179,1156,1232,1174,1165,1131,1154,1131,1110,1066,1148,1232,1310,1430,1638,1791,1932,2292,2111,2345,2405,2488,2416,2464,2139,1802,1519,1284,1044,860,766,663,555,590,569,598,652,699,851,847,741,759,859,969,919,950,983,1060,1088,1034,976,972,1078,1071,1044,1086,1158,1168,1175,1158,1130,1140,1111,1133,1081,1117,1121,1010,1099,1105,1219,1139,1141,1088,1205,1275,1195,1167,1136,1200,1135,1209,1173,1164,1232,1197,1114,1173,1267,1267,1205,1194,1197,1287,1259,1157,1173,1241,1265,1229,1200,1153,1205,1241,1278,1221,1296,1274,1285,1310,1308,1334,1344,1342,1374,1364,1328,1295,1415,1408,1438,1431,1314,1467,1425,1411,1396,1395,1390,1429,1455,1383,1374,1399,1463,1392,1408,1430,1488,1434,1366,1392,1467,1383,1463,1349,1413,1408,1423,1392,1450,1430,1374,1297,1252,1279,1391,1340,1343,1309,1211,1168,1233,1269,1168,1104,1073,1059,1077,1077,955,896,994,1095,1045,1042,1093,919,1062,1002,991,1008,1017,1023,942,932,999,1040,1008,929,982,1051,1066,1062,1091,1115,1058,1082,1088,1010,1034,1039,1082,1103,1095,1008,963,1086,1149,1094,1072,1104,1067,1009,1107,1106,1134,1151,1127,1113,1142,1075,1086,1168,1072,1173,1105,1163,1089,1021,1098,1193,1250,1262,1234,1165,1121,1098,1113,1114,1136,1237,1187,1131,1206,1232,1110,1227,1067,1142,1105,1142,1196,1246,1212,1087,1070,1187,1278,1136,1116,1149,1104,1134,1216,1202,1157,1124,1156,1165,1068,1138,1179,1207,1162,1158,1068,1088,1164,1214,1226,1118,1123,1181,1182,1141,1206,1286,1242,1124,1142,1222,1329,1271,1218,1191,1118,1206,1171,1209,1241,1199,1168,1204,1238,1223,1232,1254,1085,1088,1195,1317,1308,1225,1272,1321,1218,1202,1204,1221,1248,1174,1253,1221,1296,1312,1248,1220,1174,1225,1218,1242,1157,1169,1166,1205,1295,1168,1272,1183,1153,1151,1177,1166,1202,1183,1167,1166,1169,1130,1086,1192,1275,1232,1131,1122,1145,1143,1153,1169,1152,1196,1232,1232,1214,1179,1123,1202,1264,1281,1150,1088,1073,1151,1057,1058,1146,1214,1324,1522,1648,1841,1936,2081,2249,2369,2390,2323,2417,2403,2219,1341,1594,1941,1181,923,640,683,717,617,619,599,634,656,755,804,695,774,841,897,948,1068,999,1019,1050,1008,1098,1040,1107,1041,1072,1107,1062,1033,1072,1083,1179,1199,1124,1081,1163,1135,1230,1170,1135,1141,1136,1110,1149,1168,1198,1139,1123,1186,1208,1226,1159,1145,1146,1153,1186,1234,1200,1238,1273,1200,1206,1189,1141,1253,1290,1167,1159,1232,1200,1145,1118,1324,1264,1375,1308,1276,1252,1263,1238,1229,1351,1317,1356,1344,1317,1355,1285,1385,1323,1367,1424,1338,1362,1318,1439,1359,1421,1434,1318,1286,1505,1456,1424,1425,1424,1395,1437,1535,1486,1450,1463,1456,1488,1498,1392,1387,1394,1377,1296,1269,1353,1444,1476,1339,1357,1301,1273,1247,1229,1271,1295,1243,1138,1065,1058,1127,1152,1109,1040,993,1023,1088,1018,1077,1046,976,1004,1075,990,990,1023,954,999,928,991,951,969,1040,958,960,1011,1008,1075,933,963,1091,1040,1066,998,988,1005,1008,1079,1017,961,1115,1042,1050,1105,1196,1138,1062,1123,1186,1156,1135,1173,1069,995,1088,1088,1143,1153,1137,1069,1135,1072,1062,1236,1142,1104,1057,1118,1103,1002,1065,1050,1104,1200,1217,1183,1104,1147,1189,1158,1087,1104,1168,1221,1211,1141,1264,1169,1236,1199,1223,1169,1107,1114,1077,1058,1113,1187,1147,1146,1185,1151,1190,1172,1122,986,998,1019,1088,1058,1136,1315,1265,1181,1137,1129,1179,1136,1229,1139,1181,1223,1218,1181,1136,1117,1136,1200,1216,1155,1262,1231,1186,1148,1182,1173,1178,1119,1126,1199,1172,1269,1230,1182,1178,1203,1249,1195,1168,1124,1193,1186,1247,1245,1266,1223,1214,1168,1261,1306,1210,1230,1142,1237,1246,1227,1298,1295,1201,1238,1177,1141,1121,1141,1104,1127,1193,1182,1232,1110,1143,1198,1260,1211,1190,1202,1093,1098,1072,1157,1168,1107,1106,1142,1119,1060,1263,1202,1227,1169,1119,1121,1142,1165,1154,1138,1091,1091,1038,1013,1243,1174,1134,1069,1370,1431,1725,1627,1932,2069,2211,2352,2320,2461,2559,2443,2225,2055,1775,1456,1131,944,764,700,662,707,634,611,576,640,745,804,779,783,751,797,837,929,1012,1007,998,1008,1076,1050,1045,1104,1067,1047,1088,1123,1111,1099,1200,1049,1127,1130,1080,1137,1227,1271,1188,1136,1136,1255,1245,1122,1119,1136,1125,1148,1200,1243,1133,1120,1152,1160,1129,1140,1172,1218,1216,1222,1195,1277,1264,1237,1203,1205,1152,1175,1283,1231,1231,1243,1232,1265,1278,1228,1247,1251,1233,1269,1292,1280,1360,1296,1344,1287,1297,1392,1344,1383,1296,1287,1296,1385,1375,1419,1338,1338,1360,1295,1436,1413,1418,1453,1453,1511,1485,1409,1403,1394,1359,1335,1363,1399,1433,1452,1392,1462,1411,1371,1351,1345,1379,1365,1319,1280,1279,1295,1227,1269,1239,1184,1149,1158,1109,1104,1179,1182,1157,1061,1023,974,941,987,1003,1046,1057,975,1010,976,1013,962,1039,987,934,973,995,989,965,1005,1008,988,976,944,967,1022,1007,1007,1032,1061,1023,1059,1091,992,963,1040,1152,1147,1149,1136,1163,1104,1094,1090,1095,1081,1121,1082,1127,1081,1065,1086,1126,1092,1159,1095,1083,1089,1098,1153,1077,1099,1087,1071,1070,1041,1168,1052,1251,1225,1174,1051,1100,1139,1174,1222,1224,1246,1221,1185,1103,1210,1218,1261,1166,1147,1180,1225,1105,1063,1110,1120,1140,1168,1133,1211,1198,1109,1115,1149,1100,1162,1143,1105,1135,1155,1185,1136,1117,1257,1267,1220,1159,1101,1107,1149,1251,1209,1148,1146,1136,1127,1241,1250,1299,1151,1232,1193,1225,1173,1205,1272,1220,1266,1281,1133,1134,1232,1211,1135,1094,1205,1243,1317,1373,1305,1290,1234,1271,1232,1170,1171,1191,1250,1271,1275,1232,1173,1194,1211,1181,1164,1133,1239,1182,1166,1206,1186,1201,1203,1263,1216,1197,1140,1223,1178,1104,1087,1168,1233,1180,1198,1135,1202,1167,1194,1210,1186,1152,1173,1181,1088,1136,1134,1193,1163,1139,1226,1213,1117,1083,1106,1098,1141,1215,1264,1333,1535,1616,1803,1971,2194,2320,2355,2231,2299,2546,2442,2097,1485,1757,1235,1008,887,779,704,623,576,571,708,701,679,685,766,909,884,929,955,983,1008,1036,976,1037,1065,1041,1089,1104,1105,993,995,1153,1135,1160,1168,1081,1069,1103,1187,1155,1147,1138,1126,1187,1124,1191,1138,1082,1175,1216,1104,1168,1152,1162,1152,1230,1075,1300,1273,1162,1260,1162,1201,1159,1108,1124,1264,1334,1309,1190,1237,1127,1176,1289,1200,1194,1241,1315,1298,1299,1200,1232,1235,1295,1341,1273,1258,1275,1298,1211,1262,1201,1260,1280,1293,1274,1297,1392,1442,1413,1397,1360,1300,1328,1444,1566,1475,1407,1363,1365,1473,1424,1456,1410,1378,1441,1324,1447,1414,1445,1485,1379,1308,1339,1335,1389,1367,1284,1286,1324,1271,1311,1264,1234,1175,1136,1127,1231,1212,1069,1083,1000,945,1085,1100,1072,912,912,958,1039,915,956,1016,1040,1052,1008,1086,1070,966,903,912,895,995,961,907,866,883,1066,1085,1094,1037,986,975,986,1014,917,962,1022,1083,1057,963,937,1038,1094,1115,1117,1091,1091,1067,1015,1053,955,1058,1087,1200,1168,1175,1089,1061,1173,1088,1040,951,996,1178,1205,1204,1170,1191,1157,1076,1138,1109,993,961,1051,1148,1229,1123,1177,1146,1179,1248,981,1134,969,1259,1365,1166,1253,1023,1079,1210,1195,1053,1054,1132,1136,1173,1086,1117,1144,1036,1120,1146,1122,1132,1111,1130,1191,1200,1136,1106,1053,1056,1171,1168,1123,1277,1290,1155,1100,1122,1161,1274,1189,1204,1189,1191,1190,1158,1200,1159,1328,1195,1271,1233,1263,1174,1198,1185,1298,1197,1152,1098,1169,1145,1225,1253,1190,1171,1179,1182,1104,1102,1200,1232,1249,1233,1179,1136,1216,1148,1072,1033,1169,1223,1163,1200,1178,1135,1187,1198,1232,1163,1152,1131,1138,1067,1072,1170,1069,1152,1161,1131,1111,1251,1300,1184,1079,1175,1155,1108,1104,1083,1070,1075,1009,987,1168,1370,1584,1896,2046,1711,2202,2343,2320,2384,2256,2467,2336,1802,2121,1401,1197,955,793,645,588,597,555,576,627,659,708,762,725,723,816,910,834,991,894,945,982,964,1069,1091,1171,1124,1069,1095,1125,1130,1102,1116,1149,1094,1130,1152,1065,1072,1120,1174,1172,1168,1127,1138,1127,1115,1136,1129,1168,1166,1104,1084,1116,1143,1130,1149,1153,1231,1276,1236,1184,1238,1258,1296,1286,1234,1269,1219,1166,1142,1237,1168,1219,1173,1162,1167,1229,1269,1262,1294,1296,1302,1258,1275,1338,1238,1200,1283,1274,1296,1287,1325,1253,1303,1286,1383,1424,1489,1373,1397,1417,1454,1417,1414,1379,1459,1399,1447,1461,1489,1437,1445,1424,1477,1456,1384,1335,1360,1428,1446,1390,1381,1384,1293,1390,1408,1352,1273,1259,1300,1273,1243,1190,1239,1039,1101,1152,1191,978,1041,1158,1037,1139,1106,1007,1040,1047,1035,979,941,864,961,1083,1075,959,979,914,848,956,1042,1073,1117,1057,972,982,982,961,951,969,996,1072,1114,1008,1021,1035,1035,977,990,1035,966,856,919,998,1072,1058,1061,1130,1119,1154,1095,999,1113,1104,1002,1217,991,1103,1091,1227,1255,1189,1148,1201,1109,1088,1122,1063,1147,1132,1075,1114,1111,1181,1098,1145,1088,1008,1001,944,1064,1194,1298,1251,1142,1184,1165,1175,1136,1059,1115,1147,1173,1182,1168,1199,1151,1100,1104,1136,1202,1124,1105,1097,1168,1204,1165,1221,1111,1109,1165,1181,1122,1088,1120,1152,1072,1138,1202,1304,1197,1134,1110,1193,1209,1248,1163,1134,1215,1200,1264,1209,1211,1197,1177,1117,1251,1255,1211,1193,1186,1280,1202,1156,1212,1181,1203,1238,1262,1247,1199,1148,1143,1124,1302,1265,1226,1294,1173,1150,1168,1189,1209,1168,1115,1149,1143,1184,1127,1118,1171,1217,1172,1185,1175,1113,1153,1150,1165,1185,1169,1170,1173,1083,1130,1122,1048,1115,1098,1168,1164,1168,1101,1182,1218,1174,1142,1149,1190,1167,1130,1165,1138,1125,1142,1217,1219,1265,1413,1616,1776,1935,2147,2318,2466,2445,2500,2418,2490,2224,1924,1658,1283,1067,889,684,533,656,576,608,541,586,690,684,738,826,791,853,884,875,906,850,998,1074,1084,1082,1003,1156,1099,1055,1124,1187,1134,1173,1101,1124,1063,1040,1062,1001,1137,1205,1225,1232,1150,1083,1190,1136,1124,1186,1155,1131,1168,1139,1166,1218,1161,1136,1086,1147,1295,1260,1218,1152,1210,1205,1207,1139,1114,1117,1219,1214,1386,1206,1380,1180,1264,1267,1234,1229,1241,1310,1354,1280,1145,1158,1241,1200,1314,1363,1345,1436,1445,1378,1397,1403,1305,1307,1312,1325,1379,1407,1485,1410,1331,1301,1456,1385,1473,1440,1325,1399,1335,1459,1522,1468,1521,1406,1412,1361,1448,1485,1445,1456,1420,1328,1328,1370,1354,1296,1277,1340,1313,1271,1248,1234,1197,1209,1196,1089,1040,1121,1115,1136,989,1008,1033,1040,1023,1045,919,927,922,964,1067,1015,1062,980,911,917,898,1031,1017,1007,991,1003,1011,1003,986,1053,1129,1061,953,997,1034,1077,1022,993,1035,986,1117,1021,1073,1111,1082,1140,1090,1165,1099,1072,1127,1088,1059,1093,1074,1069,1088,1150,1094,1134,1089,1088,1110,1088,1088,1070,1110,1100,1103,1099,1111,1147,1136,1091,1120,1124,1082,1052,1058,1163,1248,1099,1149,1155,1134,1071,1131,1109,1209,1203,1161,1100,1197,1138,1155,1118,1217,1198,1056,1113,1058,1121,1179,1149,1200,1207,1164,1136,1113,1203,1149,1170,1168,1168,1136,1113,1194,1180,1149,1168,1245,1277,1213,1142,1145,1150,1182,1168,1143,1195,1253,1158,1166,1212,1191,1169,1215,1278,1209,1139,1131,1165,1244,1229,1306,1246,1140,1200,1230,1232,1230,1242,1203,1198,1230,1250,1199,1202,1133,1280,1162,1157,1113,1174,1251,1179,1156,1149,1195,1139,1150,1148,1208,1225,1119,1104,1075,1104,1155,1107,1154,1157,1195,1168,1121,1098,1207,1239,1190,1178,1182,1106,1152,1125,1170,1130,1113,1174,1115,1057,1041,1142,1197,1259,1247,1379,1490,1567,1772,1938,2121,2243,2402,2411,2437,2460,2382,1901,1301,1644,2212,871,590,1018,662,694,656,613,624,695,705,702,752,760,755,761,907,815,995,1070,1101,993,993,1102,1077,1056,1097,1200,1071,1104,1085,1093,1104,1104,1136,1063,1105,976,1022,1084,1134,1084,1153,1185,1143,1168,1171,1201,1125,1191,1085,1094,1166,1134,1186,1154,1222,1210,1231,1223,1107,1197,1117,1154,1200,1207,1247,1152,1169,1205,1225,1169,1170,1204,1246,1259,1260,1279,1217,1219,1232,1231,1292,1232,1253,1279,1366,1259,1274,1392,1258,1411,1453,1232,1392,1294,1355,1297,1383,1392,1488,1395,1360,1346,1303,1407,1345,1443,1433,1473,1462,1518,1440,1377,1302,1232,1330,1431,1383,1424,1438,1405,1383,1327,1367,1307,1377,1308,1278,1310,1202,1277,1168,1195,1232,1167,1129,1107,1098,1083,1040,1040,976,912,996,1091,1139,1023,976,915,1005,983,961,925,909,959,944,894,862,999,993,1043,1054,976,1069,981,950,982,994,1055,943,967,965,1059,995,992,1170,995,994,1133,1099,1077,1122,1023,974,1023,1062,1083,1153,1087,1121,1197,1103,1057,1091,1111,1083,1136,907,1104,1074,1159,1072,1084,1164,1116,1182,1125,1140,1084,1162,1191,1168,1123,1166,1106,1152,1136,1180,1142,1136,1071,1021,1140,1169,1157,1111,1151,1152,1171,1235,1130,1085,1104,1265,1191,1133,1173,1133,1125,1248,1194,1257,1157,1151,1168,1175,1101,1098,1203,1197,1133,1161,1194,1137,1157,1095,1169,1255,1264,1228,1259,1151,1059,1153,1191,1173,1232,1200,1151,1168,1168,1151,1191,1174,1229,1255,1232,1290,1232,1169,1136,1255,1215,1257,1215,1239,1268,1261,1152,1180,1136,1087,1066,1250,1111,1264,1122,1122,1247,1150,1093,1158,1072,1047,1168,1196,1232,1163,1073,1041,1110,1143,1133,1089,1050,1152,1088,1167,1178,1059,1271,1230,1178,1177,1112,1163,1146,1041,1141,1138,1322,1203,1238,1253,1325,1411,1658,1734,1920,2099,2295,2335,2365,2394,2449,2481,2107,1776,1298,961,1325,793,759,464,497,593,614,597,647,627,661,784,860,887,775,834,878,1072,951,925,1045,1207,1072,1023,1010,1087,1107,1235,1101,979,1041,1047,1165,1074,1111,1103,1187,1087,1043,1035,1040,1262,1118,1115,1068,1088,1200,1237,1117,1093,1111,1163,1170,1131,1165,1131,1021,1087,1169,1221,1222,1114,1180,1185,1171,1273,1147,1201,1153,1204,1133,1161,1069,1072,1283,1227,1183,1216,1219,1200,1264,1141,1168,1309,1257,1216,1287,1343,1283,1296,1201,1233,1349,1343,1382,1293,1307,1520,1427,1328,1455,1481,1326,1442,1361,1456,1507,1476,1418,1344,1379,1419,1410,1262,1312,1424,1331,1478,1404,1431,1382,1303,1327,1248,1183,1314,1260,1360,1248,1289,1255,1251,1171,1168,1049,1005,1062,1056,1140,1046,1040,1102,932,944,1072,965,1039,912,964,1021,877,987,896,861,945,1031,974,937,945,954,916,907,1002,1006,1005,987,981,1072,975,996,858,1011,942,950,1012,1129,1093,1047,1000,959,1126,1088,1101,1014,1060,1075,1098,1123,1072,917,1048,1009,1166,1083,976,1037,1100,1069,1118,1130,1119,1115,1023,1041,1198,1126,1234,1196,928,1053,1173,1111,1107,1104,912,1053,1106,1200,1071,1117,1142,1013,1136,1019,1199,1091,1127,1021,1054,1072,1100,1100,1198,1165,1041,1082,999,1232,1155,1232,1149,1062,1147,1038,1181,1100,1137,1072,1198,1091,1071,1179,1124,1120,1072,1290,1214,1229,1152,1182,1187,1159,1173,1217,1139,1132,1078,1199,1154,1267,1233,1173,1199,1160,1023,1284,1261,1302,1220,1187,1220,1183,1251,1165,1201,1222,1296,1231,1157,1160,1136,1085,1066,1177,1202,1206,1177,1188,1103,1072,1137,1133,1173,1146,1165,1150,1122,1168,1121,1074,1023,1135,1101,1167,1095,1093,1055,1178,1187,1117,1212,1168,1197,1168,1152,1159,1161,1200,1198,1110,1077,1066,1023,1009,990,1092,1091,1313,1113,1418,1762,1584,1895,2129,2281,2352,2359,2410,2439,1977,2352,2416,1648,1392,1040,817,663,597,641,561,590,592,576,613,686,736,818,865,844,918,867,937,1008,1063,978,945,912,1008,1066,1049,1067,1141,1104,1145,1118,1111,1142,1152,1072,1008,1063,1040,1110,1183,1139,1151,1155,1169,1168,1127,1073,1078,1180,1201,1168,1257,1169,1170,1178,1086,1149,1139,1176,1184,1129,1203,1165,1170,1221,1211,1244,1147,1227,1101,1158,1315,1129,1244,1216,1110,1199,1258,1392,1376,1280,1201,1186,1301,1234,1268,1355,1360,1311,1389,1350,1253,1300,1280,1297,1251,1435,1347,1388,1398,1361,1366,1367,1366,1414,1360,1367,1360,1414,1431,1392,1427,1412,1454,1363,1461,1408,1471,1465,1345,1419,1410,1422,1311,1264,1195,1325,1323,1382,1264,1229,1235,1087,1137,1215,1079,1095,1059,1126,1163,1071,1000,1002,912,963,954,957,977,992,945,1008,966,892,880,912,944,915,896,906,948,1057,1069,1017,993,990,938,914,913,893,962,1101,1091,1050,1009,965,991,1035,1072,1042,999,1016,1066,1043,1067,1009,1056,1111,1131,1152,1106,1102,1136,1051,1023,1036,1136,1125,1134,1088,1017,1092,1073,1031,1015,1050,1088,1060,1120,1143,1155,1129,1087,1115,1115,1122,1127,1055,1177,1121,1089,1097,1051,1121,1130,1168,1125,1141,1146,1168,1102,1191,1089,1081,1106,1136,1101,1200,1111,1079,1187,1153,1072,1141,1165,1156,1150,1104,1099,1079,1055,1099,1099,1188,1168,1239,1187,1202,1100,1136,1187,1143,1182,1295,1238,1233,1254,1168,1197,1231,1205,1127,1186,1147,1153,1173,1136,1199,1246,1202,1200,1255,1227,1233,1240,1247,1198,1225,1251,1177,1182,1120,1246,1330,1103,1299,1232,1194,1246,1194,1105,1192,1184,1103,1163,1161,1104,1073,1108,1169,1163,1210,1146,1101,1120,1177,1143,1146,1120,1111,1165,1168,1151,1103,1104,1163,1119,1132,1104,1159,1215,1202,1146,1170,1159,1142,1174,1075,1006,1091,1088,1210,1133,1199,1169,1328,1456,1825,1705,1936,2269,2110,2377,2479,2530,2467,2455,2250,1940,1388,1097,1651,871,661,560,545,575,650,656,645,693,678,745,721,768,772,802,899,912,1051,1125,1085,1125,1104,1008,1060,1013,1051,1070,1106,1110,1046,1150,1120,1165,1022,1072,1130,1179,1171,1088,1099,1067,1159,1193,1123,1201,1158,1135,1264,1238,1162,1125,1195,1159,1197,1183,1199,1171,1136,1139,1200,1165,1202,1253,1311,1207,1157,1149,1177,1264,1291,1264,1255,1183,1217,1246,1280,1233,1276,1328,1267,1329,1200,1232,1365,1301,1351,1320,1296,1441,1401,1294,1313,1397,1392,1302,1408,1421,1390,1392,1390,1403,1433,1451,1386,1410,1435,1557,1431,1525,1535,1433,1467,1424,1366,1423,1473,1535,1418,1252,1282,1425,1434,1351,1311,1294,1231,1274,1267,1219,1266,1360,1216,1303,1126,1296,1279,1199,1200,1077,1008,961,1068,1023,1072,1040,1043,1108,970,1095,945,993,1011,991,944,965,971,894,945,1098,979,1055,1136,1104,1003,1023,989,925,917,1001,1008,1067,1067,1078,1019,1123,1211,1089,967,1056,1090,1056,1133,1047,1067,991,1062,1091,1088,1167,1216,1162,1152,1068,1066,1168,1205,1120,1088,1117,1061,1103,1147,1104,1095,1164,1101,1111,1191,1195,1170,1142,1062,1175,1169,1148,1175,1195,1179,1227,1199,1190,1151,1151,1174,1123,1175,1193,1184,1229,1238,1097,1166,1149,1142,1181,1119,1178,1085,1045,1230,1234,1163,1083,1102,1111,1187,1170,1199,1280,1175,1181,1094,1168,1232,1179,1232,1194,1223,1245,1232,1263,1267,1140,1139,1200,1171,1314,1374,1278,1206,1203,1236,1280,1241,1260,1245,1155,1168,1189,1205,1222,1206,1218,1187,1300,1280,1200,1214,1202,1283,1271,1203,1136,1183,1221,1194,1202,1133,1143,1182,1182,1170,1125,1171,1173,1232,1184,1115,1098,1105,1213,1134,1139,1249,1259,1237,1210,1139,1168,1069,1111,1205,1200,1198,1234,1205,1152,1121,1150,1151,1150,1170,1105,1136,1137,1127,1251,1202,1650,1790,1451,1908,2112,2263,2413,2401,2382,2430,2426,2202,1956,1588,1287,1073,789,674,848,670,656,598,624,618,663,766,722,787,863,967,962,916,1005,1044,935,1127,1045,1063,1082,1131,1072,1101,1166,1141,1130,1152,1109,1174,1153,1127,1159,1077,1160,1167,1131,1085,1151,1268,1254,1136,1104,1107,1161,1157,1197,1220,1262,1265,1296,1206,1200,1168,1138,1246,1174,1179,1237,1227,1232,1203,1169,1233,1266,1235,1200,1206,1277,1198,1172,1242,1289,1214,1221,1217,1363,1328,1328,1247,1334,1239,1289,1318,1383,1442,1377,1315,1348,1367,1466,1361,1392,1426,1494,1353,1395,1366,1351,1395,1510,1501,1430,1457,1497,1390,1466,1405,1413,1480,1431,1535,1455,1351,1374,1443,1316,1377,1400,1457,1374,1328,1297,1326,1328,1360,1360,1234,1363,1195,1177,1210,1205,1190,1178,1061,1054,1168,1070,974,963,991,1023,1052,1018,912,941,999,1057,1015,1058,965,1023,960,1023,965,999,1097,1010,1034,966,1021,1012,1067,1090,1105,1008,973,947,982,1115,1072,1101,1152,1078,1072,1086,1074,1072,990,1057,1103,1184,1133,1109,1109,1047,1104,1137,1179,1232,1120,1090,1135,1194,1129,1092,1057,1121,1179,1230,1195,1195,1075,1105,1081,1116,1129,1209,1209,1242,1139,1136,1059,1072,1137,1121,1122,1232,1200,1207,1157,1163,1183,1137,1200,1185,1159,1175,1136,1137,1199,1237,1281,1305,1162,1133,1141,1134,1200,1106,1318,1255,997,1157,1023,1077,1219,1264,1265,1130,1078,1247,1148,1312,1250,1207,1217,1218,1197,1169,1195,1222,1294,1233,1246,1255,1175,1137,1168,1269,1308,1233,1200,1200,1272,1223,1357,1175,1287,1293,1328,1374,1232,1275,1232,1213,1118,1282,1333,1317,1231,1249,1248,1231,1200,1135,1255,1211,1265,1231,1200,1146,1170,1207,1245,1315,1234,1187,1211,1234,1215,1158,1173,1136,1086,1119,1214,1189,1120,1161,1141,1293,1199,1084,1194,1057,1178,1286,1312,1228,1118,1122,1251,1169,1067,1145,1238,1091,1134,1119,1115,1168,1218,1196,1263,1421,1531,1682,1879,1989,2107,2224,2335,2419,2468,2559,2544,2335,1995,1702,1344,1105,870,718,670,597,563,592,668,685,706,723,720,676,720,741,989,897,1133,1167,1105,1046,1020,1111,1090,1125,1072,1079,1122,1135,1152,1180,1104,1115,1097,1098,1143,1132,1204,1158,1115,1137,1184,1136,1200,1175,1217,1182,1148,1165,1191,1200,1203,1203,1167,1072,1113,1179,1218,1262,1234,1232,1258,1259,1312,1195,1291,1232,1238,1226,1170,1231,1199,1242,1327,1379,1270,1269,1233,1360,1322,1334,1264,1277,1248,1310,1291,1325,1346,1346,1287,1335,1334,1258,1264,1318,1424,1457,1479,1456,1360,1439,1520,1510,1427,1500,1392,1377,1406,1490,1466,1387,1369,1423,1477,1520,1443,1505,1497,1437,1381,1445,1389,1367,1443,1409,1360,1389,1297,1343,1300,1283,1264,1245,1296,1193,1142,1205,1121,1073,1040,1011,1089,1007,1114,948,1013,991,1003,1088,1023,1017,928,963,1023,966,971,981,1021,1082,1008,1032,1045,1036,957,962,988,1039,1010,1058,1072,1109,1085,1088,1101,1040,1015,1013,1039,1002,1072,1023,1126,1110,1104,1103,1173,1139,1127,1136,1088,1008,1104,1150,1051,1023,1040,1120,1177,1168,1161,1163,1107,1104,1088,1126,1223,1218,1172,1139,1146,1152,1141,1082,1186,1185,1129,1098,1089,1173,1163,1136,1107,1102,1171,1174,1159,1173,1137,1135,1182,1158,1200,1117,1081,1155,1185,1185,1057,1110,1182,1085,1183,1083,1131,1205,1171,1217,1122,1124,1110,1095,1133,1104,1116,1274,1307,1296,1184,1217,1225,1232,1142,1153,1217,1136,1150,1182,1155,1190,1218,1266,1209,1253,1194,1145,1161,1214,1239,1264,1189,1287,1323,1170,1311,1294,1211,1249,1263,1210,1198,1247,1246,1230,1264,1311,1245,1171,1193,1264,1266,1220,1168,1152,1283,1277,1193,1154,1203,1194,1266,1298,1138,1230,1182,1297,1264,1119,1054,1050,1139,1157,1259,1186,1193,1200,1141,1238,1171,1136,1111,1140,1153,1292,1146,1221,1338,1275,1141,1113,1183,1199,1119,1142,1159,1136,1012,1042,1129,1216,1194,1349,1504,1680,1840,2033,2307,2324,2330,2385,2432,2507,2446,1888,1535,2268,1281,1046,681,649,839,641,599,654,656,730,663,694,769,743,793,848,945,989,986,940,978,989,1017,1108,1083,1071,1040,1059,1014,1117,1040,1098,1061,1200,1203,1136,1045,1073,1040,1071,1186,1291,1324,1174,1194,1135,1188,1152,1126,1106,1136,1136,1184,1245,1136,1200,1197,1136,1103,1129,1123,1237,1206,1250,1197,1216,1205,1216,1207,1163,1136,1117,1173,1231,1445,1349,1254,1280,1264,1213,1226,1269,1376,1349,1337,1328,1405,1342,1276,1377,1365,1334,1309,1286,1388,1355,1332,1405,1299,1401,1424,1382,1379,1395,1424,1320,1371,1481,1570,1474,1479,1485,1354,1245,1171,1323,1457,1489,1479,1451,1411,1404,1367,1391,1422,1308,1268,1314,1338,1264,1377,1386,1292,1232,1193,1116,1105,1176,1183,1110,1014,966,1040,1115,1017,944,1104,987,1135,1071,945,938,922,950,923,943,958,1004,1013,944,901,1020,1071,986,976,1023,1063,969,1054,1069,1087,1070,999,1017,1017,982,992,982,976,1023,1076,1168,1136,1072,976,1095,1072,1102,1103,1171,1114,1055,1115,1109,1148,1165,1178,1101,1202,1210,1203,1149,1152,1107,1051,1061,1104,1157,1180,1136,1057,1078,1166,1143,1145,1167,1149,1121,1081,1039,1188,1205,1216,1155,1161,1089,1072,1117,1213,1149,1068,1183,1192,1194,1103,1152,1085,1149,1136,1150,1200,1213,1248,1185,1146,1135,1166,1166,1104,1186,1171,1125,1104,1153,1214,1200,1200,1135,1177,1104,1168,1226,1201,1139,1187,1214,1207,1155,1198,1200,1219,1206,1207,1169,1238,1282,1260,1232,1256,1216,1232,1236,1168,1203,1232,1225,1168,1152,1195,1237,1244,1233,1213,1181,1181,1056,1117,1183,1152,1136,1199,1216,1297,1229,1088,1162,1075,1204,1162,1150,1158,1090,1123,1123,1148,1161,1139,1185,1216,1130,1168,1106,1094,1167,1176,1083,1125,1185,1146,1113,1136,1138,1173,1155,1109,1148,1123,1060,1121,1094,1174,1206,1410,1312,1466,1697,1875,2046,2198,2435,2382,2443,2303,2442,2345,2009,1645,1430,1136,880,677,589,651,714,657,613,634,693,621,656,705,811,814,843,879,939,966,947,1011,1008,1109,1169,1200,1062,1101,1035,1085,1066,1094,1119,1155,1121,1072,1060,1114,1123,1137,1136,1057,1088,1119,1136,1130,1178,1187,1047,1086,1136,1221,1217,1179,1190,1172,1168,1126,1173,1184,1229,1168,1243,1137,1136,1200,1248,1202,1298,1311,1104,1253,1168,1234,1264,1246,1247,1299,1261,1152,1224,1222,1264,1298,1259,1233,1250,1302,1366,1300,1278,1282,1291,1344,1303,1315,1407,1359,1348,1325,1434,1436,1420,1408,1431,1456,1405,1394,1394,1503,1443,1413,1419,1408,1393,1370,1343,1323,1306,1346,1423,1367,1524,1406,1335,1279,1255,1280,1296,1329,1173,1213,1178,1115,1234,1245,1253,1133,1134,1104,1094,1023,1088,1070,1067,1056,1039,976,935,979,960,934,970,991,991,871,912,893,975,1003,1011,1008,1041,1013,1033,930,919,991,1040,944,951,1019,976,959,962,1053,1100,1088,1055,1077,1146,1002,1015,1104,1221,1094,1013,1079,1107,1002,1019,1095,1113,1126,1134,1070,1153,1104,1109,1129,1149,1074,1104,1058,1054,1008,1045,1134,1164,1168,1133,1031,1059,1105,1115,1188,1100,1085,1090,1099,1095,1129,1200,1265,1168,1231,1143,1098,1180,1124,1149,1102,1127,1075,1072,1094,1136,1110,1102,1088,1149,1179,1157,1105,1152,1185,1210,1134,1152,1149,1150,1206,1104,1083,1120,1229,1169,1152,1125,1106,1102,1136,1109,1136,1296,1253,1314,1211,1155,1245,1158,1144,1246,1231,1213,1149,1152,1175,1296,1287,1296,1312,1231,1207,1193,1180,1245,1216,1170,1150,1200,1273,1165,1206,1126,1085,1092,1178,1110,1130,1056,1079,1169,1269,1241,1090,1104,1152,1280,1200,1166,1163,1095,1151,1098,1154,1146,1158,1148,1140,1171,1196,1182,1140,1104,1081,1138,1165,1296,1242,1104,1148,1117,1108,1015,997,1013,1077,1115,1207,1309,1461,1590,1923,1763,2096,2000,2419,2217,2510,2592,2530,2419,2138,1760,1067,1459,855,705,646,663,656,551,559,637,631,654,641,663,816,903,892,814,839,995,1018,1069,1072,1085,1052,1021,982,1005,1035,1114,1083,1072,1058,1091,1103,1077,1070,1099,1139,1142,1147,1162,1189,1122,1109,1163,1202,1200,1221,1143,1114,1169,1149,1225,1177,1092,1059,1117,1136,1165,1166,1206,1185,1245,1251,1175,1168,1181,1200,1202,1218,1227,1171,1241,1202,1136,1301,1150,1386,1413,1287,1239,1221,1255,1317,1394,1290,1269,1291,1305,1306,1315,1320,1296,1298,1371,1342,1361,1402,1340,1391,1309,1359,1376,1461,1488,1465,1485,1511,1427,1382,1415,1391,1309,1415,1383,1487,1505,1393,1421,1375,1258,1252,1347,1486,1482,1456,1401,1301,1267,1259,1270,1269,1192,1138,1216,1275,1200,1182,1130,1005,1013,1063,1014,961,930,930,979,1056,1014,991,1014,961,976,940,896,917,923,987,912,917,1104,1078,982,1040,911,983,998,959,1087,1119,1107,1023,1008,993,1051,1124,1073,1015,972,984,1013,1058,986,1103,995,994,1043,1090,1133,1135,1157,1147,1215,1200,1206,1168,1098,1140,1051,995,1126,1180,1120,1104,1093,1117,1210,1089,1106,1179,1149,1102,1072,1158,1191,1072,1242,1168,1231,1136,1107,1136,1118,991,1054,1186,1200,1104,1106,1041,1073,1187,1218,1281,1135,1088,1123,1115,1089,1114,1175,1101,1241,1200,1134,1155,1150,1163,1161,1132,1136,1193,1161,1148,1183,1209,1145,1134,1091,1136,1214,1191,1168,1190,1168,1141,1094,1207,1228,1230,1155,1123,1184,1182,1169,1179,1226,1275,1243,1259,1200,1200,1222,1351,1386,1200,1268,1187,1149,1180,1298,1244,1265,1280,1193,1152,1206,1233,1264,1157,1159,1261,1156,1296,1221,1170,1241,1146,1152,1147,1235,1184,1136,1050,1201,1200,1105,1055,995,1005,1179,1206,1137,1300,1243,1226,1163,1200,1194,1198,1184,1062,1110,1213,1131,1151,1129,1204,1163,1200,1187,1169,1149,1123,1017,1008,1046,1099,1141,1163,1255,1393,1535,1748,1881,2082,2299,2427,2447,2489,2463,2491,2415,2111,1218,1469,1729,951,758,709,687,594,495,462,554,611,638,686,666,784,845,942,975,1069,979,1035,1007,1056,1072,1031,1104,1072,1200,1184,1109,1019,1052,1055,1131,1120,1159,1153,1071,1200,1121,1109,1107,1074,1090,1158,1134,1114,1199,1126,1137,1141,1270,1216,1158,1219,1215,1218,1199,1252,1245,1216,1200,1206,1163,1215,1191,1236,1207,1237,1328,1275,1239,1206,1223,1251,1216,1267,1248,1280,1168,1264,1283,1360,1271,1355,1313,1247,1260,1303,1280,1334,1305,1357,1394,1325,1383,1350,1441,1437,1393,1392,1367,1422,1390,1410,1475,1467,1426,1424,1414,1418,1440,1469,1463,1490,1410,1382,1425,1407,1408,1448,1439,1360,1359,1335,1382,1407,1385,1375,1392,1232,1218,1150,1214,1157,1163,1134,1117,1086,1036,1023,1162,1152,1200,1115,982,1122,1103,1060,1051,1023,1049,976,969,944,964,1008,1088,994,866,1021,960,894,1083,1044,1066,1055,1017,951,1023,1082,1037,1047,962,1045,1013,1043,1061,1066,874,820,1040,1109,1215,1264,1155,1104,1110,1111,1137,1090,1066,1054,1173,1251,1134,1136,1049,1059,1140,1117,1127,1086,1023,1008,1134,1200,1169,1152,1074,1123,1180,1088,1135,1124,982,1063,1146,1287,1151,1094,1141,1254,1205,1217,1134,1257,1154,1115,1168,1158,1077,1095,1117,1088,1189,1211,1135,1073,1088,1155,1073,1185,1267,1152,1131,1072,1217,1046,1168,1136,1091,1153,1282,1073,1200,1149,1142,1093,1103,1271,1218,1251,1221,1347,1302,1254,1310,1318,1281,1306,1309,1254,1198,1215,1190,1197,1166,1219,1190,1200,1197,1174,1159,1179,1172,1253,1300,1311,1207,1136,1148,1191,1136,1180,1124,1149,985,1073,1072,1153,1207,1232,1200,1339,1280,1225,1161,1212,1113,1141,1151,1215,1121,1186,1210,1174,1141,1136,1170,1151,1142,1109,1226,1166,1180,1114,1152,1135,1078,1139,1080,1058,1068,1134,1274,1399,1447,1456,1731,1946,2090,2238,2458,2539,2517,2502,2494,2318,1881,1503,1298,1074,795,738,676,718,605,634,607,640,625,721,755,739,751,838,884,869,878,969,995,1088,926,1015,1057,1006,1168,1112,1063,1069,1030,1067,1120,1098,1072,1062,1125,1182,1225,1181,1108,1328,1283,1189,1121,1244,1106,1095,1156,1061,1105,1075,1183,1210,1163,1196,1241,1203,1209,1200,1232,1261,1264,1209,1153,1182,1215,1234,1252,1104,1147,1088,1281,1250,1253,1248,1219,1234,1226,1232,1230,1296,1280,1351,1251,1317,1371,1360,1354,1296,1296,1374,1330,1357,1330,1353,1387,1351,1296,1375,1418,1386,1377,1377,1390,1408,1405,1472,1441,1393,1373,1415,1406,1408,1436,1424,1419,1349,1388,1344,1377,1395,1397,1402,1392,1423,1321,1184,1242,1334,1257,1279,1253,1232,1308,1235,1190,1057,1037,1023,1088,1072,1079,982,1005,1067,1015,912,845,976,925,963,994,891,1051,1033,1083,1047,947,815,825,910,964,1055,1157,1036,976,1182,1045,1037,1040,1138,1009,1040,1033,1103,1072,1039,1047,1008,1007,988,1015,1106,1058,1023,1152,1105,1115,1079,1164,1136,1150,1104,1033,1097,1115,1082,1181,1058,1079,1103,1047,1094,1244,1238,1187,1088,1200,1156,1119,1106,1175,1200,1161,1172,1165,1200,1168,1088,1023,1067,1141,1126,1072,1066,1189,1147,1052,1086,1244,1223,1136,1147,1189,1178,1217,1185,1120,1067,1108,1121,1106,1088,1119,1091,1115,1186,1266,1233,1296,1145,1241,1232,1286,1217,1137,1136,1152,1177,1200,1180,1199,1219,1123,1129,1119,1196,1168,1168,1098,1230,1303,1245,1337,1229,1219,1246,1230,1227,1264,1225,1175,1167,1189,1187,1197,1267,1203,1075,1153,1249,1207,1207,1179,1201,1165,1186,1232,1158,1138,1155,1168,1137,1109,1060,1067,1145,1191,1130,1115,1131,1197,1217,1279,1142,1133,1201,1088,1169,1136,1168,1197,1153,1182,1168,1233,1097,1063,1100,1076,1097,1150,1136,1125,1129,1143,1237,1264,1364,1558,1885,1775,2032,2175,2286,2417,2345,2482,2446,2384,2096,1772,1424,1159,864,721,640,634,565,605,608,571,644,650,663,673,721,834,896,786,1120,977,1049,1023,1072,978,1067,1148,1171,1094,1023,1023,1013,1106,1201,1190,1136,1106,1152,1141,1088,1078,1184,1155,1162,1119,1147,1196,1154,1152,1113,1077,1109,1178,1198,1141,1059,1109,1187,1232,1200,1153,1173,1168,1180,1120,1306,1136,1203,1281,1245,1199,1211,1239,1315,1284,1185,1148,1276,1203,1197,1273,1241,1212,1214,1248,1235,1181,1185,1223,1296,1337,1360,1306,1252,1223,1283,1441,1328,1489,1460,1453,1353,1302,1361,1415,1440,1428,1402,1410,1456,1461,1456,1423,1495,1463,1444,1334,1364,1456,1465,1371,1396,1442,1362,1325,1323,1371,1343,1282,1314,1330,1285,1238,1258,1167,1231,1005,1197,1094,1230,1180,1117,1127,1124,1155,1056,994,944,978,1017,1023,926,929,943,990,1022,944,890,993,1043,933,900,964,893,959,978,1055,977,1039,1040,968,1008,898,933,1013,1169,1068,1103,1115,1138,1066,1012,1031,1067,1051,1104,1063,1006,973,1021,1110,1185,1099,1138,1155,1105,1139,1157,1104,1082,1135,1069,1089,1102,1104,1072,1140,1015,1036,1111,1232,1180,1089,1003,1076,1168,1199,1206,1222,1152,1173,1174,1122,1171,1023,1105,1072,1069,1076,1167,1180,1234,1215,1079,1143,1097,1136,1171,1189,1113,1010,1115,1074,1201,1143,1181,1099,1008,1088,1126,1097,1107,1155,1135,1119,1123,1126,1285,1239,1232,1206,1195,1114,1083,1098,1108,1178,1165,1155,1200,1134,1170,1179,1136,1142,1200,1226,1264,1265,1133,1173,1198,1171,1168,1184,1201,1095,1146,1159,1200,1201,1152,1148,1115,1167,1305,1264,1299,1331,1250,1213,1252,1269,1255,1190,1136,1169,1190,1239,1239,1194,1163,1083,1135,1185,1200,1130,1185,1157,1152,1141,1165,1130,1131,1111,1162,1167,1160,1203,1218,1184,1095,1077,1072,1104,1246,1163,1101,1059,1211,1289,1152,1202,1187,1187,1136,1123,1137,1164,1203,1148,1081,1073,1085,1069,1108,1299,1392,1504,1554,1797,2159,2432,1961,2471,2544,2553,2477,2512,2217,1485,1866,985,1189,874,768,596,464,422,492,613,635,594,689,797,816,869,903,880,933,972,973,985,1017,1098,1104,1087,1047,1047,1019,1013,1035,1098,1066,1042,1105,1095,1192,1113,1060,1102,1186,1200,1117,1142,1102,1107,1179,1134,1109,1152,1239,1201,1233,1203,1190,1133,1177,1204,1197,1115,1164,1188,1241,1168,1135,1085,1209,1278,1218,1207,1235,1226,1269,1209,1210,1261,1233,1247,1285,1285,1291,1296,1317,1211,1243,1223,1293,1317,1363,1356,1307,1310,1379,1304,1200,1195,1343,1259,1439,1463,1451,1430,1328,1377,1407,1465,1375,1363,1462,1459,1461,1456,1409,1409,1445,1438,1424,1404,1393,1355,1345,1387,1408,1392,1472,1439,1434,1311,1325,1361,1411,1284,1185,1186,1167,1228,1279,1200,1232,1091,1052,1106,1092,1091,1078,981,1103,861,915,967,966,883,924,903,993,1041,1040,1062,1041,1047,1095,976,938,993,942,902,960,1053,1088,1122,1009,994,1040,988,1023,1093,1063,1034,1069,1049,1002,987,1116,1139,1069,1053,1072,1047,1033,1104,1231,1216,1162,1079,1057,1113,1152,1074,1072,1108,1057,1103,1110,1057,1095,1088,1137,1113,1139,1141,1084,1104,1071,1152,1120,1023,1168,1211,1232,1114,1102,1037,1129,1133,1138,1168,1145,1153,1221,1136,1123,1198,1158,1139,1119,1197,1255,1198,1104,1127,1133,1115,1137,1193,1229,1137,1145,1112,1193,1145,1109,1111,1230,1168,1172,1137,1202,1282,1283,1157,1117,1162,1137,1125,1104,1203,1238,1221,1167,1187,1229,1216,1235,1215,1214,1206,1171,1269,1285,1195,1106,1146,1246,1238,1183,1206,1236,1200,1225,1127,1194,1207,1212,1275,1201,1223,1105,1249,1171,1206,1200,1200,1248,1117,1166,1161,1097,1126,1127,1125,1118,1097,1200,1200,1151,1103,1154,1157,1194,1217,1184,1166,1187,1147,1104,1142,1168,1158,1166,1203,1162,1143,1098,989,1081,1169,1087,1094,1154,1210,1197,1242,1407,1590,1910,1747,2275,2075,2343,2544,2372,2500,2177,2427,1923,1561,1338,1084,882,707,635,631,546,622,592,631,657,747,755,741,750,855,875,866,912,966,995,1040,1075,1119,1088,1078,1066,1023,934,928,1051,1161,1174,1159,1072,1166,1193,1164,1155,1120,1199,1150,1189,1165,1146,1135,1136,1174,1248,1168,1075,1201,1178,1088,1083,1158,1152,1176,1142,1209,1275,1211,1168,1179,1150,1155,1165,1235,1219,1228,1246,1222,1181,1200,1251,1267,1271,1275,1313,1221,1268,1255,1255,1287,1322,1292,1248,1261,1281,1235,1297,1301,1349,1296,1377,1360,1368,1386,1423,1413,1441,1462,1375,1351,1358,1290,1471,1517,1490,1423,1376,1476,1499,1424,1408,1428,1454,1361,1374,1410,1454,1349,1317,1373,1391,1381,1264,1233,1271,1326,1216,1290,1201,1166,1189,1241,1184,1121,1038,1023,1023,1104,1155,1097,1018,1062,1050,966,976,949,1013,1020,912,912,912,959,1037,897,954,1136,851,1061,943,1020,1007,1043,1029,1035,1018,1004,1040,1033,873,848,927,1098,1185,1121,1090,1061,1017,1079,1089,1104,1040,1072,1104,1074,1060,1040,911,1018,1071,1083,1069,1196,1020,1206,1125,1087,1137,1169,1241,1171,1168,1055,1047,1093,1105,1117,1106,1127,1216,1226,1180,1081,1042,1057,1066,1144,1232,1212,1264,1227,1118,1065,1117,1081,1061,1023,1035,1086,1087,1161,1135,1161,1168,1178,1153,1168,1177,1219,1203,1161,1104,1168,1152,1245,1087,1039,1126,1088,1125,1175,1262,1217,1219,1243,1270,1193,1211,1264,1155,1143,1195,1211,1179,1135,1214,1194,1163,1295,1211,1143,1124,1158,1153,1261,1279,1254,1103,1084,1238,1259,1233,1196,1213,1179,1175,1168,1177,1147,1174,1146,1055,1152,1017,1038,1104,1066,1162,1249,1136,1182,1101,1151,1167,1231,1126,1108,1106,1089,1082,1043,1178,1183,1191,1041,874,1243,1182,1228,1132,1150,1067,1057,1093,1217,1219,1171,1104,1225,1271,1474,1643,1801,1991,2080,2224,2286,2555,2442,2559,2282,2485,1840,1506,1302,1072,770,627,576,560,638,535,459,540,614,615,646,749,811,853,773,1040,964,1093,1007,1045,1110,1097,1067,1023,1015,994,1059,1091,1088,1062,1023,1040,1126,1054,997,1019,1052,1089,1211,1154,1198,1155,1008,1159,1158,1187,1183,1107,962,1066,1250,1355,1247,1165,1214,1137,1153,1183,1218,1228,1166,1081,1314,1163,1241,1170,1211,1170,1226,1275,1379,1290,1244,1152,1207,1040,1198,1166,1218,1248,1410,1370,1298,1279,1278,1216,1252,1264,1371,1424,1392,1488,1568,1379,1200,1423,1383,1456,1423,1419,1328,1385,1264,1356,1394,1449,1370,1489,1460,1471,1524,1423,1398,1490,1411,1565,1390,1527,1573,1462,1322,1424,1347,1241,1344,1289,1275,1261,1189,1232,1291,1264,1268,1243,1261,1130,1060,806,1012,1073,1165,1104,1083,976,941,757,778,853,1042,1082,1014,992,1014,1006,934,954,976,947,923,997,963,956,976,897,954,1088,1108,1072,1119,1005,1008,1069,1019,981,1031,1135,1135,1042,1063,1051,1041,1106,1076,1015,977,925,1012,1105,1114,1162,1195,941,1253,1125,1079,1090,1031,1059,1139,1126,1117,1150,1136,1072,1061,1154,1219,1109,973,1019,1136,1181,1082,1149,1125,1113,1079,1136,1178,1130,1077,1008,1112,1202,1173,1076,1040,1135,1157,1179,1123,1143,1175,1172,1152,1127,1168,1142,1104,1218,1174,1199,1290,1168,1090,1191,1136,1088,1130,1115,1033,944,1098,1295,1417,1215,1198,1179,1263,1142,1138,1243,1070,1115,1252,1199,1244,1131,1212,1114,1120,1212,1408,1207,1149,1271,1313,1340,1367,1226,1206,1205,1231,1153,1135,1191,1220,1117,1200,1210,1095,1200,1120,1018,978,1131,1207,1195,1217,1120,1147,1222,1082,1097,1003,1143,1135,1125,1139,1094,1168,1169,1229,1236,1168,1158,1152,1213,1212,1185,1203,1217,994,1207,1134,1136,1125,1218,1185,1220,1190,949,1002,1099,1253,1220,1286,1450,1743,1677,1524,1882,2249,2367,2479,2487,2465,2519,2460,2161,1829,1731,1251,902,710,727,670,641,574,621,640,615,617,640,667,822,895,928,976,974,996,987,973,926,967,1147,1168,1114,1056,962,915,1016,1040,1226,1219,1200,1154,1145,1249,1089,1157,1156,1243,1166,1076,1037,1217,1209,1161,1168,1107,1099,1194,1282,1232,1183,1143,1117,1154,1242,1245,1157,1075,1111,1131,1185,1210,1165,1232,1214,1232,1263,1194,1072,1168,1333,1378,1245,1163,1307,1314,1389,1318,1229,1177,1248,1299,1255,1297,1285,1332,1351,1349,1319,1319,1389,1383,1332,1367,1379,1398,1418,1343,1363,1392,1459,1437,1328,1354,1387,1345,1343,1450,1415,1483,1340,1471,1501,1397,1348,1486,1437,1385,1379,1399,1437,1327,1264,1311,1301,1263,1291,1305,1318,1215,1251,1360,1154,1223,1185,1047,971,977,988,955,1057,1062,1040,1008,1008,1021,913,943,873,912,970,945,976,1018,998,1078,1102,1062,952,910,985,1076,1046,961,974,1040,1036,1099,1131,1071,1168,1088,1069,1088,1094,986,1034,965,848,1079,1247,1264,1053,989,1039,987,1059,1161,1110,1156,1055,1056,1168,1063,1063,1036,1069,1101,1182,1166,1126,1133,1168,1137,1034,1190,1104,1166,1058,1074,1072,1262,1194,1209,1088,1155,1074,1111,1146,1131,1121,1115,1124,1145,1148,1078,1040,1008,1089,1151,1165,1192,1200,1168,1152,1094,1110,1101,1047,1232,1146,1182,1136,1101,1199,1168,1181,1214,1232,1197,1206,1121,1095,1099,1134,1214,1220,1265,1338,1290,1264,1296,1239,1242,1232,1133,1183,1200,1171,1279,1205,1214,1145,1106,1119,1137,1130,1095,1150,1178,1150,1100,1173,1247,1103,1253,1112,1051,1110,1009,1081,1139,1216,1142,1166,1097,1141,1157,1151,1223,1215,1180,1136,1151,1196,1203,1162,1102,1114,1074,1149,1189,1154,1040,1136,1126,1118,1051,1021,1078,1068,1165,1264,1339,1428,1630,1814,1906,2097,2166,2288,2415,2502,2461,2418,1968,1648,2206,1357,868,1067,816,752,625,530,510,667,625,688,657,739,709,897,896,844,881,919,987,1068,1018,1120,976,1050,1054,1062,1194,1098,991,1081,1063,1097,1104,1072,1151,1157,1211,1136,1131,1142,1153,1166,1168,1061,1057,1200,1173,1206,1090,1169,1142,1135,1232,1137,1247,1246,1117,1195,1233,1162,1114,1162,1205,1224,1296,1237,1280,1275,1155,1107,1175,1307,1275,1297,1269,1222,1288,1378,1282,1263,1219,1231,1287,1188,1278,1277,1293,1287,1318,1294,1231,1369,1350,1358,1392,1427,1402,1446,1452,1424,1407,1422,1355,1408,1344,1305,1294,1360,1435,1458,1590,1483,1392,1457,1485,1477,1421,1405,1390,1378,1353,1313,1408,1360,1296,1253,1291,1199,1220,1274,1311,1227,1234,1279,1198,1121,1091,1079,1008,979,1073,1095,1009,1045,1023,1008,995,1042,961,944,987,911,890,1046,1055,1072,1058,944,933,864,853,1020,1011,1021,996,976,1009,947,1010,916,973,1072,1019,1153,1067,1044,963,973,1022,1005,1072,1064,1110,1023,1052,1102,1101,1129,1038,1067,1132,1072,1114,1103,1085,1101,1093,1104,1084,1062,1087,1085,1137,1184,1146,1117,1199,1148,1157,1061,1072,1157,1187,1169,1141,1134,1067,1001,1038,1071,1207,1230,1198,1063,1132,1134,1155,1202,1193,1149,1200,1134,1147,1079,1107,1059,1077,1137,1194,1118,1132,1121,1141,1121,1052,1104,1156,1195,1162,1095,1062,1023,1136,1185,1137,1137,1195,1228,1273,1221,1238,1152,1182,1117,1106,1100,1127,1123,1211,1264,1227,1200,1203,1285,1290,1231,1200,1226,1219,1175,1136,1199,1170,1142,1176,1123,1136,1226,1258,1296,1217,1175,1200,1109,1106,1190,1212,1139,1127,1209,1131,1123,1136,1168,1088,1031,1077,1072,1072,1061,1109,1178,1175,1102,1143,1162,1119,1126,1142,1131,1104,1174,1043,1137,1036,1221,1257,1232,1177,1135,1152,1131,1119,1136,1023,1022,1104,1265,1497,1595,1680,1837,2138,2258,2336,2384,2477,2477,2469,2398,1771,1462,2113,1159,894,682,539,501,556,555,573,560,571,671,686,739,851,816,886,865,906,1048,993,1043,1003,1058,1127,1072,1095,1098,1049,989,960,1038,1126,1135,1046,1063,1111,1066,1059,1097,1116,1118,1049,1077,1165,1138,1213,1248,1139,1081,1142,1136,1134,1228,1067,1191,1178,1223,1157,1153,1172,1133,1161,1232,1168,1178,1185,1214,1254,1235,1200,1281,1179,1264,1186,1315,1275,1158,1147,1253,1293,1281,1239,1246,1245,1195,1241,1275,1137,1253,1286,1392,1527,1403,1529,1424,1371,1396,1302,1328,1361,1442,1409,1447,1394,1383,1487,1438,1431,1477,1404,1440,1462,1482,1377,1447,1456,1397,1401,1368,1360,1424,1442,1391,1360,1372,1452,1474,1352,1287,1252,1255,1232,1246,1219,1200,1199,1164,1114,1035,969,1050,1075,1119,1044,1072,1130,1107,1046,1023,961,906,921,950,992,1037,1086,979,896,917,960,971,964,986,1072,1088,1124,1069,1030,1146,1040,1123,976,944,929,1050,974,1081,1115,1207,1173,1088,1115,1088,1152,1072,1033,1023,1083,1127,1157,1122,1097,1070,1061,1040,1137,1124,1127,1211,1137,1136,1177,1127,1099,1099,1098,1060,1111,1141,1165,1123,1071,1111,1089,1145,1191,1162,1225,1236,1229,1219,1126,1265,1127,1104,1041,1067,1111,1111,1088,1133,1198,1246,1232,1190,1206,1162,1168,1150,1088,974,1104,1214,1239,1193,1168,1197,1205,1177,1119,1125,1152,1168,1200,1233,1210,1169,1230,1152,1163,1153,1201,1149,1168,1179,1197,1190,1198,1317,1300,1180,1196,1218,1168,1206,1230,1230,1271,1218,1293,1253,1248,1265,1223,1289,1232,1179,1177,1187,1157,1250,1296,1212,1250,1203,1166,1270,1233,1232,1156,1086,1130,1150,1225,1136,1073,1126,1220,1177,1184,1179,1169,1153,1129,1129,1104,1171,1269,1135,1166,1247,1191,1167,1138,1201,1054,1129,1124,1185,1136,1142,1151,1157,1147,1091,1156,1237,1266,1147,1187,1287,1419,1535,1715,1920,2079,2193,2373,2511,2420,2612,2530,2431,2137,1778,1456,1303,1053,762,635,598,559,529,610,633,650,643,747,777,832,834,873,957,1047,1030,1091,1010,1055,1136,1114,1104,986,1006,1018,1089,1121,1168,1106,1089,1083,1144,1141,1119,1162,1123,1107,1184,1177,1215,1059,1060,1131,1170,1255,1259,1211,1083,1109,1153,1204,1247,1211,1158,1201,1166,1118,1374,1301,1249,1174,1213,1285,1203,1104,1223,1201,1163,1247,1232,1185,1249,1281,1255,1255,1377,1359,1239,1234,1301,1296,1195,1210,1342,1232,1418,1371,1331,1354,1366,1283,1328,1391,1323,1344,1363,1424,1456,1521,1408,1251,1403,1585,1535,1485,1345,1372,1467,1391,1415,1513,1405,1406,1458,1399,1390,1427,1479,1425,1402,1381,1245,1265,1287,1306,1247,1285,1213,1245,1218,1195,1296,1214,1126,1190,1097,1143,1168,1054,975,1127,995,1003,957,949,1014,1121,1038,976,999,1008,928,955,986,1010,952,977,1023,1008,1012,978,1007,1037,954,951,1008,1056,1007,926,923,1014,1023,1073,1154,1143,1075,999,968,1033,1133,1177,1190,1101,1040,1072,1045,1088,1057,1023,1073,1091,1074,1104,1174,1266,1200,1041,1072,1226,1237,1087,1055,1098,1168,1110,1158,1181,1101,1090,1094,1120,1151,1127,1180,1157,1113,1133,1215,1169,1170,1147,1164,1218,1191,1191,1120,1161,1104,1168,1143,1088,1074,1046,1183,1166,1195,1232,1146,1134,1153,1183,1207,1179,1161,1153,1163,1179,1184,1186,1201,1269,1162,1161,1232,1225,1233,1185,1171,1299,1167,1191,1114,1306,1119,1231,1286,1312,1263,1136,1136,1202,1299,1222,1232,1234,1223,1251,1166,1141,1238,1136,1126,1121,1125,1169,1125,1134,1168,1104,1192,1122,1063,1183,1113,1155,1291,1251,1251,1200,1179,1152,1130,1147,1093,1126,1164,1136,1110,1191,1133,1163,1061,1163,1104,1170,1141,1152,1132,1229,1211,1193,1056,1023,1054,1134,1119,1137,1269,1283,1363,1566,1691,1919,2027,2112,2398,2257,2448,2540,2481,2306,1968,1610,1440,1140,853,726,721,603,534,614,607,624,630,656,765,840,832,828,975,823,960,1046,1019,979,978,1022,1104,1121,1110,1145,1158,1074,1048,1159,1151,1049,1015,1049,1013,1038,1053,1168,1137,1200,1200,1168,1186,1184,1150,1109,1017,1111,1183,1243,1228,1192,1115,1153,1232,1152,1190,1221,1325,1220,1249,1253,1245,1200,1204,1152,1226,1141,1200,1167,1195,1228,1209,1177,1193,1314,1335,1318,1225,1299,1279,1308,1310,1249,1284,1257,1238,1335,1302,1360,1323,1222,1369,1366,1444,1392,1363,1387,1383,1455,1522,1430,1392,1424,1498,1490,1505,1425,1378,1447,1354,1402,1472,1467,1414,1383,1404,1426,1471,1451,1361,1360,1323,1280,1344,1342,1235,1219,1278,1234,1211,1252,1248,1230,1138,1164,1126,1106,1098,1104,1114,1041,1009,1006,979,933,910,1006,1119,1014,1040,1086,1021,943,896,1039,907,1040,966,1007,978,1010,1054,957,981,970,978,997,987,944,1066,1056,1088,1075,1021,1083,1098,1072,1072,1065,1118,1135,1158,1177,1174,1177,1103,1044,1107,1111,1158,1136,1104,1105,1137,1114,1114,1156,1200,1116,1123,1007,1018,1152,1079,1021,1104,1214,1131,1152,1149,1177,1111,1170,1156,1168,1142,1163,1142,1113,1189,1132,1200,1249,1220,1107,1131,1159,1101,1173,1089,1154,1183,1207,1216,1154,1109,1123,1166,1248,1135,1187,1134,1113,1053,1166,1193,1200,1130,1136,1229,1179,1040,1142,1218,1236,1230,1155,1199,1271,1250,1264,1267,1263,1277,1262,1254,1231,1168,1102,1200,1255,1214,1155,1158,1184,1162,1152,1171,1169,1186,1095,1121,1170,1104,1040,1085,1135,1181,1234,1191,1156,1172,1087,1054,1121,1232,1244,1210,1184,1189,1148,1176,1177,1186,1085,1173,1240,1211,1226,1216,1127,1222,1210,1226,1172,1181,1149,1120,1081,1101,1120,1072,999,931,1093,1249,1295,1355,1378,1526,1726,1958,2145,2265,2303,2343,2445,2516,2480,1885,2256,1646,1398,1136,801,678,778,752,695,720,606,590,654,685,690,823,888,747,848,998,1101,1054,902,944,1061,1111,1034,967,1102,1042,1006,1023,1087,1056,1120,1119,1152,1153,1123,1133,1119,1155,1216,1169,1159,1106,1102,1094,1175,1220,1181,1143,1043,1051,1157,1204,1203,1283,1274,1278,1263,1207,1217,1238,1169,1174,1194,1239,1205,1238,1165,1108,1119,1072,1269,1170,1314,1239,1157,1152,1211,1264,1299,1270,1273,1263,1284,1343,1344,1341,1271,1255,1255,1294,1348,1328,1322,1411,1322,1378,1449,1392,1479,1374,1434,1519,1478,1482,1458,1509,1456,1469,1425,1344,1489,1328,1327,1494,1486,1465,1424,1344,1346,1293,1365,1366,1403,1287,1340,1457,1354,1312,1292,1264,1277,1210,1232,1168,1161,1169,1106,1067,1089,1067,1074,1146,1050,999,929,967,982,986,995,1061,1006,975,1040,1042,1004,1037,995,924,970,1010,966,1041,1077,1008,1018,978,1003,979,1104,1115,1163,1096,1087,1131,997,1073,1042,1077,1099,1057,1099,1113,1040,1040,1013,1066,1122,1137,1102,1020,1075,1118,1138,1140,1073,1008,1101,1232,1178,1136,1146,1161,1136,1181,1151,1176,1210,1154,1166,1123,1191,1178,1131,1117,1231,1161,1136,1066,1130,1141,1156,1168,1194,1147,1104,1122,1139,1177,1188,1182,1126,1115,1104,1091,1124,1109,1127,1102,1040,1059,1209,1201,1216,1226,1181,1263,1157,1200,1167,1219,1141,1200,1166,1233,1200,1165,1184,1232,1196,1178,1115,1350,1250,1306,1185,1238,1175,1218,1301,1215,1152,1136,1198,1213,1158,1164,1168,1149,1136,1151,1173,1229,1269,1301,1328,1245,1191,1145,1129,1197,1131,1147,1138,1166,1224,1164,1079,1081,1127,1070,1139,1122,1225,1249,1271,1238,1168,1126,1058,1072,1118,1185,1219,1186,1063,1118,1126,1222,1206,1135,1089,1232,1158,1184,1088,1111,1137,1134,1145,1160,1092,1163,1299,1370,1340,1401,1726,1534,1950,2155,2320,2345,2393,2502,2315,2424,2109,1776,1362,1131,971,813,699,657,599,649,618,635,658,743,811,785,749,862,917,1057,1071,1041,921,928,1034,951,1111,1226,1152,1108,1086,1120,1081,1054,1019,968,1081,1265,1238,1106,1121,1142,1189,1143,1190,1152,1113,1138,1104,1141,1134,1088,1229,1151,1206,1145,1168,1199,1253,1269,1262,1136,1118,1122,1194,1172,1126,1276,1185,1161,1235,1216,1273,1296,1324,1227,1125,1168,1200,1169,1296,1104,1211,1376,1318,1209,1350,1332,1261,1237,1215,1229,1334,1392,1331,1367,1361,1446,1335,1329,1323,1374,1376,1402,1322,1398,1442,1530,1600,1456,1360,1288,1361,1505,1535,1379,1351,1359,1359,1366,1383,1482,1455,1484,1361,1327,1243,1371,1392,1315,1368,1318,1327,1242,1185,1213,1225,1236,1150,1151,1086,1072,1136,1136,1015,961,1041,1019,906,921,950,1001,994,1002,961,912,983,1021,1021,1038,1008,944,1005,1107,1051,985,1008,967,1021,989,1002,988,1018,1091,1116,1121,1069,1040,957,942,1094,1007,990,1040,1023,1054,1127,1152,1069,1139,1082,979,986,1068,1157,1152,1128,1117,1195,1101,1091,1095,1120,1114,1126,1107,1157,1136,1205,1234,1181,1040,1045,1060,1043,1200,1152,1133,1163,1172,1135,1158,1143,1200,1136,1100,1136,1142,1127,1153,1120,1070,1097,1152,1088,1150,1166,1162,1126,1149,1111,1125,1169,1115,1107,1187,1152,1152,1136,1121,1122,1120,1170,1231,1173,1085,1159,1113,1153,1153,1136,1195,1155,1074,1104,1233,1360,1329,1153,1232,1229,1105,1121,1123,1424,1298,1312,1175,1181,1171,1219,1230,1207,1186,1145,1199,1213,1151,1187,1328,1283,1141,1152,1089,1125,1055,1189,1259,1100,1216,1072,1168,1155,1150,1120,1205,1232,1173,1166,1174,1039,1098,1149,1167,1133,1173,1197,1214,1157,1126,1130,1107,1138,1153,1267,1141,1285,1185,1143,1187,1023,1014,1003,1120,1090,1152,1270,1269,1360,1457,1579,1693,1851,2110,2169,2323,2398,2381,2089,2448,2486,1669,1407,1266,1010,864,691,576,598,709,695,682,736,819,757,757,781,837,842,976,1023,959,969,910,1103,992,1216,1141,1066,1055,1035,999,1095,1049,1085,1040,1070,1138,1206,1157,1180,1135,1157,1069,1146,1197,1193,1195,1113,1136,1175,1129,1200,1175,1131,1168,1208,1142,1153,1135,1206,1264,1191,1293,1312,1225,1238,1223,1137,1081,1095,1104,1312,1220,1206,1176,1228,1233,1242,1232,1286,1319,1312,1184,1233,1197,1199,1200,1223,1370,1359,1381,1298,1270,1283,1319,1307,1360,1456,1413,1392,1391,1401,1440,1369,1381,1404,1325,1471,1426,1295,1254,1488,1509,1535,1441,1407,1488,1441,1385,1397,1330,1279,1297,1362,1344,1358,1396,1375,1407,1366,1260,1198,1221,1264,1259,1253,1166,1168,1122,1119,1092,1067,1104,1023,1018,1063,1097,1107,1015,1041,963,954,896,1023,1122,947,816,917,1005,994,1065,1076,1014,1008,862,1023,886,1077,1088,893,1040,1073,1018,1023,1082,1113,1091,1117,1082,1043,983,1031,1110,1040,1034,1100,1125,1087,1037,1070,1090,1136,1131,1088,1031,1058,1103,1079,1098,1090,1001,1073,998,1071,1229,1282,1167,1030,1017,1133,1202,1171,1196,1179,1158,1145,1097,1014,1023,1145,1294,1133,1170,1139,1196,1139,1190,1110,1163,1040,1104,1283,1264,1191,1106,1145,1170,1228,1119,1115,1103,1173,1142,1106,1118,1067,1134,1198,1213,1222,1129,1114,1139,1105,1184,1212,1133,1173,1202,1179,1114,1200,1186,1143,1125,1157,1222,1193,1175,1175,1271,1201,1165,1211,1093,1170,1277,1267,1289,1188,1290,1309,1233,1210,1174,1265,1270,1228,1183,1185,1271,1278,1200,1141,1136,1175,1207,1168,1227,1125,1143,1216,1196,1152,1136,1119,1196,1218,1131,1195,1138,1193,1169,1245,1094,1047,1170,1191,1163,1215,1158,1173,1210,1200,1146,1155,1186,1182,1193,1123,1090,1093,1117,1146,1168,1168,1138,1093,1157,1121,1114,1200,1190,1157,1168,1217,1360,1535,1730,1881,1984,2101,2238,2501,2507,2401,2412,2368,2012,1598,1339,1169,1042,897,663,643,582,605,624,699,682,688,693,690,714,870,871,944,970,996,1008,1047,1078,1072,1085,1008,1004,1170,1047,1131,1047,1106,1104,1125,1115,1091,1099,1090,1172,1136,1184,1166,1105,1152,1163,1205,1169,1189,1157,1139,1094,1114,1207,1168,1118,1145,1217,1216,1140,1135,1147,1155,1200,1198,1154,1235,1186,1143,1230,1264,1246,1228,1187,1263,1253,1257,1166,1191,1248,1238,1215,1270,1251,1229,1247,1297,1259,1296,1345,1268,1414,1351,1360,1281,1264,1291,1365,1349,1312,1290,1297,1369,1445,1490,1407,1445,1339,1394,1409,1502,1438,1365,1341,1391,1381,1338,1479,1456,1458,1415,1357,1446,1444,1438,1371,1313,1271,1302,1214,1171,1226,1315,1378,1271,1201,1168,1132,1141,1115,1122,1066,1054,1019,1042,957,997,1031,1021,1040,982,947,921,834,891,988,1094,1061,979,955,1001,949,1019,961,994,937,937,976,1069,995,997,1062,993,1040,1127,1093,1009,1064,1114,1019,1070,1043,1057,1141,1152,1023,1033,1044,1164,1066,1038,1152,1020,1126,1111,1115,1101,1126,1110,1107,1088,1035,1072,1118,1166,1015,980,1043,1130,1131,1143,1165,1130,1153,1220,1177,1189,1133,1131,1139,1089,1088,1059,1136,1129,1210,1114,1189,1155,1165,1110,1178,1137,1167,1132,1120,1001,1051,1155,1191,1168,1072,1151,1170,1216,1232,1187,1168,1209,1168,1209,1118,1057,1181,1089,1215,1136,1175,1194,1166,1170,1127,1216,1211,1036,1065,1236,1216,1109,1225,1232,1143,1113,1197,1170,1268,1321,1205,1093,1150,1121,1136,1233,1264,1172,1249,1159,1250,1151,1159,1115,1201,1171,1239,1169,1232,1149,1164,1206,1217,1232,1330,1325,1277,1213,1263,1254,1202,1264,1133,1147,1234,1261,1223,1249,1221,1148,1205,1262,1163,1242,1089,1135,1211,1168,1153,1138,1186,1239,1136,1085,1230,1275,1143,1171,1096,1134,1066,1264,1154,1163,1200,1136,1093,1209,1218,1144,1150,1258,1135,1117,1163,1120,1163,1177,1158,1196,1183,1191,1103,1145,1145,1160,1441,1264,1655,2003,1789,2148,2281,2409,2384,2445,2582,2559,2313,1939,1553,1296,1049,839,750,688,590,594,542,539,549,657,642,752,892,816,963,851,980,1035,1013,974,998,1034,1083,1002,960,1002,1211,1155,1158,1153,1120,1110,1087,1089,1038,1163,1136,1136,1137,1161,1089,1158,1136,1075,1017,1115,1095,1136,1271,1274,1161,1133,1200,1231,1247,1181,1158,1241,1185,1244,1200,1156,1243,1177,1165,1153,1182,1184,1199,1185,1150,1222,1200,1251,1279,1241,1217,1246,1312,1235,1165,1122,1213,1325,1293,1350,1308,1344,1258,1332,1297,1354,1341,1423,1431,1399,1346,1319,1328,1360,1315,1426,1520,1491,1422,1297,1354,1326,1425,1616,1600,1520,1505,1415,1475,1412,1374,1374,1411,1377,1372,1374,1456,1373,1305,1398,1323,1250,1306,1312,1392,1289,1215,1232,1169,1136,1149,1075,1061,1168,1072,1013,1056,912,874,999,1078,1077,953,960,1074,1147,1088,1067,920,944,1005,914,944,1115,1012,987,999,1035,1043,963,946,933,1001,1104,1087,1039,1054,1039,995,1009,1014,1077,960,1013,995,1056,1190,1237,1139,1188,1120,1115,1136,1092,1094,1133,1183,1092,1006,1072,1082,1120,1165,1142,1125,1002,1001,1040,1072,1105,1230,1238,1126,1143,1144,1180,1136,1136,1152,1157,1065,1089,1140,1181,1137,1057,1021,1129,1092,1168,1157,1191,1206,1185,1047,1023,1072,1174,1255,1247,1248,1127,1187,1153,1191,1198,1191,1163,1155,1059,1125,1217,1121,1122,1195,1168,1203,1210,1250,1225,1168,1134,1023,1104,1199,1230,1234,1197,1166,1069,1122,1158,1231,1292,1265,1215,1186,1136,1269,1323,1218,1233,1229,1143,1147,1104,1195,1179,1245,1194,1332,1250,1234,1280,1265,1264,1266,1238,1205,1165,1115,1199,1291,1360,1328,1247,1140,1223,1269,1313,1227,1193,1223,1216,1280,1232,1275,1273,1177,1063,1213,1258,1340,1306,1257,1171,1240,1277,1207,1322,1265,1186,1135,1216,1189,1245,1006,924,1182,1279,1173,1300,1226,1227,1437,1676,1875,2065,2229,2361,2251,2353,2422,2611,2497,2309,1931,1603,1253,981,777,764,706,599,834,640,855,834,693,783,618,694,827,886,897,950,1037,1021,1070,1099,1047,1203,1136,1013,1073,1075,1168,1179,1195,1198,1173,1239,1209,1244,1263,1167,1098,1085,1050,1079,1100,1230,1281,1216,1132,1109,1135,1189,1200,1150,1136,1076,1009,1042,1200,1259,1243,1182,1232,1187,1104,1186,1131,1110,1155,1223,1163,1215,1281,1200,1174,1196,1241,1310,1227,1147,1194,1309,1255,1365,1362,1296,1278,1194,1296,1346,1310,1354,1318,1302,1233,1212,1337,1420,1423,1438,1422,1392,1296,1451,1482,1437,1299,1241,1467,1339,1407,1443,1306,1353,1319,1381,1314,1399,1451,1520,1418,1358,1360,1295,1239,1266,1265,1322,1345,1388,1165,1149,1251,1206,1216,1286,1220,1280,998,1147,973,986,1057,975,984,1051,1064,885,860,901,925,948,960,1069,990,868,752,756,1200,965,1059,967,960,949,919,884,912,978,1072,1148,1057,983,1077,1095,1013,1070,1079,1053,1010,1040,978,1040,1133,950,1055,1007,1014,1012,1119,1189,1090,1021,1086,1074,966,976,1126,1264,1286,1219,1349,1266,1332,1261,1255,1121,1169,1232,1211,1289,1199,1319,1274,1097,1205,1170,1157,1232,1245,1152,1200,1194,1247,1238,1238,1307,1259,1168,1185,1211,1146,1210,1209,1157,1163,1147,1217,1370,1377,1297,1244,1284,1214,1187,1205,1259,1183,1176,1232,1251,1264,1264,1295,1303,1315,1298,1233,1264,1245,1251,1261,1370,1285,1229,1289,1284,1278,1285,1261,1280,1227,1157,1207,1183,1255,1255,1191,1243,1203,1247,1149,1215,1226,1138,1212,1153,1184,1195,1053,1076,1183,1087,1142,1302,1281,1227,1132,1113,1088,1121,1159,1147,1185,1068,1091,1149,1107,1136,1078,1082,1074,1094,1188,1225,1257,1206,1133,1104,1077,1060,1071,1090,1136,1043,1090,1229,1255,1392,1443,1571,1711,2187,2295,2283,2359,1986,2340,2327,2160,1789,1562,1310,1110,878,688,607,681,767,631,645,750,494,469,660,721,878,915,954,923,1035,962,921,909,1006,994,1128,1023,1045,1069,1011,1092,1071,1084,998,1065,1087,1095,1135,1073,992,1037,1126,1136,1154,1207,1159,1137,1119,1152,1118,1111,1111,1197,1168,1122,1088,1109,1150,1197,1184,1185,1166,1187,1173,1200,1190,1155,1143,1178,1179,995,1083,1143,1152,1044,1162,1305,1297,1315,1215,1253,1198,1249,1246,1258,1264,1362,1293,1292,1268,1246,1131,1239,1202,1154,1358,1410,1474,1285,1411,1365,1370,1392,1381,1342,1283,1307,1343,1344,1365,1350,1388,1358,1331,1358,1366,1449,1465,1333,1292,1300,1334,1360,1328,1278,1290,1351,1294,1246,1189,1276,1312,1219,1213,1232,1195,1139,1090,1045,1023,991,1009,1038,1098,1103,965,1009,913,880,942,989,990,925,992,1021,1047,914,944,937,914,935,963,982,988,1042,1036,959,969,914,973,970,996,1106,971,1085,1023,986,1081,1008,1021,1054,1008,1041,1002,1039,1088,1088,1119,1167,1177,1105,1079,1105,1149,1095,1151,1105,1105,1180,1135,1093,1005,1082,1013,1054,1152,1150,1135,1036,1051,1010,1050,1023,1082,1200,1124,1199,1216,1226,1221,1156,1102,1179,1052,1163,1047,1226,1297,1188,1158,1165,1147,1158,1136,1200,1123,1090,1023,1046,1131,1223,1156,1130,1085,1153,1163,1137,1104,1168,1129,1152,1141,1154,1307,1317,1185,1105,1086,1102,1070,1055,1126,1230,1232,1229,1248,1281,1293,1280,1200,1149,1185,1178,1269,1328,1232,1217,1243,1159,1204,1197,1122,1154,1263,1191,1135,1174,1127,1065,1037,1013,1077,1215,1252,1047,1168,1110,1155,1097,1159,1051,1058,1036,1074,1118,1204,1114,1201,1093,1218,1222,1152,1171,1184,1211,1193,1104,1104,1037,1135,1040,1249,1073,1057,1152,1145,1151,1213,1277,1427,1531,1667,1886,2075,2158,2163,2288,2291,2297,2281,2145,1479,1758,1197,939,933,912,762,620,593,646,712,687,638,655,692,804,871,930,882,919,1042,1082,1045,947,1008,1061,1091,1072,1114,1094,1033,1049,1023,976,1090,1153,1168,1136,1085,955,1082,1136,1232,1137,1297,1225,1233,1122,1094,1270,1213,1051,1070,1168,1146,1218,1163,1103,1089,1143,1149,1181,1258,1178,1233,1248,1136,1044,1154,1308,1211,1099,1136,1211,1232,1232,1212,1242,1149,1229,1122,1301,1270,1189,1203,1273,1357,1313,1249,1243,1198,1314,1294,1305,1362,1367,1330,1225,1305,1314,1378,1386,1360,1325,1375,1390,1357,1359,1360,1462,1490,1392,1328,1351,1299,1295,1328,1394,1461,1419,1363,1424,1351,1322,1372,1332,1411,1339,1358,1319,1274,1238,1232,1178,1172,1186,1155,1216,1136,1036,1077,1045,1035,965,1055,1104,1082,960,925,857,995,1163,1134,986,961,1057,1056,1023,903,911,987,1038,1074,1077,1066,1063,1072,1104,996,994,1006,1056,1060,988,1088,1164,1126,1186,1041,1021,1075,1053,1007,1094,1166,1151,1130,1083,1015,1019,1040,1062,1053,1100,1049,1059,1016,1037,1163,1229,1103,1149,1218,1083,1286,1206,1184,1207,1121,1008,1141,1011,1054,1137,1097,1166,1134,1109,1153,1137,1133,1114,1125,1127,1152,1107,1135,1166,1021,1038,1100,1104,1154,1184,1136,1227,1117,1105,1188,1212,1076,1008,1102,1089,1134,1106,1136,1210,1296,1152,1183,1121,1177,1197,1088,1186,1135,1155,1093,1207,1205,1136,1105,1074,1148,1095,1152,1190,1183,1247,1211,1138,1136,1190,1113,1209,1211,1088,1145,1091,1178,1198,1286,1156,1132,1201,1312,1226,1122,1159,1299,1326,1121,1105,1136,1194,1251,1193,1134,1104,1186,1101,1118,1094,1076,1130,1126,1087,1125,1179,1136,1120,1126,1017,1136,1118,1137,1291,1230,1305,1232,1297,1138,1163,1216,1222,1174,1242,1255,1245,1190,1199,1265,1220,1200,1155,1200,1147,1143,1202,1166,1136,1136,1118,1119,