1078
1118
1072
1141
1105
1133
1184
1233
1215
1121
1104
1089
1095
1088
1126
1134
1186
1184
1219
1198
1177
1120
1146
1104
1168
1218
1197
1172
1159
1158
1106
1122
1146
1168
1163
1170
1172
1175
1119
1110
1181
1235
1168
1184
1167
1217
1168
1196
1150
1075
1146
1111
1070
1168
1152
1150
1168
1168
1170
1151
1093
1124
1201
1186
1186
1110
1148
1162
1147
1234
1143
1184
1100
1106
1163
1238
1303
1280
1194
1152
1280
1264
1191
1309
1325
1298
1254
1238
1296
1286
1315
1258
1203
1169
1254
1264
1202
1291
1202
1147
1131
1196
1167
1209
1168
1182
1136
1163
1166
1177
1168
1106
1057
1172
1222
1120
1085
1049
1099
1084
1175
1131
1189
1147
1121
1136
1052
1040
1189
1223
1232
1206
1122
1107
1111
1118
1095
1203
1185
1138
1094
1104
1104
1170
1068
1089
1170
1156
1166
1071
1193
1242
1247
1303
1231
1210
1345
1422
1424
1488
1508
1680
1763
1907
1971
2017
2021
1763
1101
1369
863
759
638
656
708
826
877
972
966
959
1071
1157
1154
1060
1059
1040
1104
1104
1094
1109
1112
1104
1198
1152
1168
1166
1152
1165
1127
1098
1127
1147
1154
1238
1237
1280
1236
1169
1137
1194
1244
1227
1148
1168
1205
1104
1150
1159
1163
1203
1223
1291
1223
1235
1242
1278
1255
1292
1281
1203
1126
1143
1216
1215
1194
1261
1316
1223
1295
1282
1210
1216
1249
1219
1250
1319
1311
1240
1290
1285
1327
1296
1270
1313
1291
1231
1348
1318
1283
1247
1203
1239
1325
1301
1346
1360
1312
1406
1367
1291
1379
1259
1389
1278
1409
1386
1409
1323
1281
1260
1379
1321
1294
1328
1411
1345
1296
1301
1290
1286
1260
1299
1241
1331
1267
1203
1204
1200
1121
1168
1152
1139
1174
1111
1136
1057
1096
1152
1097
1057
1136
1017
999
1090
1052
1083
1053
1089
1021
969
1040
1101
1088
1033
1168
1086
1110
1040
1040
960
1104
1010
1065
1099
1120
1094
1106
1118
1079
1088
1046
1100
1079
1136
1144
1207
1166
1181
1202
1139
1104
1075
1073
1098
1070
1083
1179
1183
1139
1129
1107
1168
1130
1189
1136
1220
1200
1223
1232
1170
1162
1123
1155
1267
1179
1137
1200
1120
1265
1246
1217
1267
1214
1142
1179
1168
1169
1217
1110
1146
1296
1239
1125
1142
1166
1275
1120
1169
1239
1229
1233
1268
1185
1177
1223
1163
1227
1214
1136
1263
1275
1216
1233
1145
1207
1181
1203
1187
1104
1178
1200
1191
1264
1221
1191
1213
1313
1199
1172
1181
1163
1177
1210
1178
1184
1154
1168
1220
1289
1208
1147
1175
1193
1190
1199
1145
1127
1167
1264
1244
1232
1159
1186
1179
1280
1244
1237
1194
1216
1165
1155
1186
1174
1211
1168
1236
1207
1134
1211
1149
1243
1116
1176
1306
1168
1309
1083
1147
1282
1239
1188
1154
1209
1264
1216
1232
1232
1260
1148
1200
1104
1250
1170
1230
1209
1217
1162
1138
1110
1188
1270
1271
1214
1200
1200
1197
1165
1261
1249
1264
1196
1211
1168
1200
1193
1215
1230
1232
1253
1242
1200
1133
1258
1200
1218
1191
1185
1225
1187
1178
1217
1246
1192
1167
1216
1216
1221
1213
1168
1293
1447
1275
1329
1307
1250
1152
1235
1264
1275
1283
1287
1340
1255
1242
1328
1301
1210
1280
1206
1216
1264
1233
1252
1285
1310
1265
1214
1282
1190
1233
1196
1216
1183
1185
1198
1153
1187
1129
1104
1089
1131
1126
1136
1216
1143
1118
1136
1134
1104
1163
1150
1172
1200
1266
1104
1226
1123
1118
1168
1147
1141
1162
1154
1198
1230
1119
1061
1119
1074
1202
1193
1179
1180
1227
1276
1267
1372
1389
1396
1475
1514
1603
1647
1671
1781
1942
2081
2143
2071
1854
1437
1152
898
628
777
656
749
801
934
964
1009
1063
1136
1141
1114
1134
1097
1113
1104
1095
1055
1122
1247
1247
1190
1114
1145
1127
1146
1073
1171
1206
1250
1171
1214
1179
1211
1197
1316
1168
1246
1264
1214
1184
1123
1143
1150
1195
1236
1238
1257
1296
1272
1264
1241
1232
1195
1200
1257
1200
1322
1311
1229
1280
1259
1243
1239
1262
1282
1269
1290
1309
1308
1239
1232
1283
1318
1282
1247
1219
1297
1284
1295
1283
1285
1371
1297
1293
1254
1314
1315
1311
1318
1305
1313
1385
1441
1335
1370
1392
1422
1296
1305
1254
1349
1456
1376
1461
1313
1392
1354
1369
1360
1409
1360
1315
1360
1382
1359
1267
1281
1302
1280
1333
1278
1193
1172
1203
1235
1228
1188
1223
1167
1132
1165
1068
1110
1155
1110
1191
975
1081
1122
1174
1107
1250
1168
1136
1073
1088
1088
1018
1011
1082
1008
1048
1086
1086
1083
1059
1122
1040
1072
1082
1110
1039
976
1035
1173
1114
1075
1093
1154
1103
1069
1127
1050
1121
1121
1140
1138
1095
1082
1089
1063
1131
1168
1207
1126
1168
1136
1154
1200
1098
1113
1197
1119
1180
1105
1175
1158
1216
1168
1238
1216
1196
1232
1113
1133
1062
1179
1239
1179
1228
1198
1310
1150
1218
1187
1196
1138
1163
1225
1275
1235
1168
1168
1152
1215
1239
1195
1227
1201
1231
1195
1193
1237
1239
1162
1189
1214
1247
1174
1168
1175
1201
1167
1133
1154
1179
1152
1219
1232
1231
1185
1183
1273
1251
1168
1152
1172
1212
1226
1193
1324
1206
1248
1113
1062
1115
1198
1227
1136
1230
1216
1189
1255
1254
1215
1216
1098
1121
1134
1107
1180
1200
1171
1196
1168
1168
1175
1190
1223
1230
1217
1179
1159
1254
1125
1187
1200
1287
1232
1130
1147
1153
1167
1152
1154
1391
1182
1306
1181
1236
1344
1301
1181
925
1227
1238
1249
1214
1250
1269
1266
1207
1247
1187
1104
1165
1252
1223
1167
1147
1193
1186
1186
1154
1312
1223
1191
1141
1200
1230
1200
1200
1192
1247
1230
1105
1253
1169
1206
1230
1183
1200
1165
1182
1056
1168
1206
1228
1195
1313
1374
1494
1174
1211
1329
1247
1277
1392
1232
1419
1305
1217
1207
1225
1217
1264
1374
1323
1263
1264
1309
1269
1220
1281
1263
1216
1245
1198
1219
1117
1083
1095
1130
1173
1127
1204
1125
1118
1159
1155
1086
1168
1139
1106
1190
1237
1211
1264
1235
1154
1119
1184
1146
1126
1122
1168
1145
1139
1115
1260
1151
1259
1181
1154
1136
1136
1102
1187
1099
1199
1152
1210
1271
1232
1246
1270
1362
1426
1453
1453
1553
1602
1810
2017
2054
2021
1968
1753
1488
1157
821
622
603
618
683
767
906
833
1046
1126
1023
1074
1105
1157
1152
1087
1136
1173
1257
1110
1147
1165
1203
1231
1230
1217
1102
1106
1162
1150
1114
1136
1167
1238
1277
1215
1216
1211
1249
1196
1226
1280
1235
1209
1122
1200
1210
1169
1197
1282
1217
1199
1185
1181
1214
1197
1322
1109
1231
1334
1312
1249
1209
1275
1263
1306
1293
1323
1347
1252
1332
1266
1264
1258
1280
1227
1236
1229
1291
1287
1408
1296
1227
1230
1261
1343
1355
1366
1359
1264
1303
1296
1344
1413
1354
1326
1312
1398
1296
1312
1325
1311
1355
1385
1338
1427
1344
1312
1308
1360
1303
1326
1329
1317
1325
1328
1347
1280
1343
1335
1328
1330
1340
1290
1200
1171
1173
1231
1158
1179
1265
1193
1058
1015
1054
1081
1150
1119
1053
1046
1061
1135
1088
1099
985
947
1040
1117
1013
970
1004
1055
1014
1088
1069
1072
969
986
1021
1049
1023
1023
1013
1108
1095
1051
1073
1050
1064
1088
1097
986
987
1038
1119
1117
1070
1063
1091
1136
1182
1094
1136
1117
1139
1121
1176
1042
1101
1219
1135
1161
1168
1104
1108
1201
1193
1157
1203
1152
1216
1150
1204
1113
1059
1178
1192
1248
1169
1163
1229
1147
1108
1145
1131
1115
1153
1163
1161
1137
1141
1147
1153
1223
1158
1115
1232
1187
1174
1221
1153
1147
1215
1199
1235
1247
1213
1194
1219
1166
1090
1121
1207
1253
1206
1213
1197
1257
1310
1212
1151
1169
1171
1133
1185
1166
1161
1189
1181
1163
1161
1195
1168
1186
1114
1177
1161
1166
1130
1141
1205
1173
1187
1183
1221
1199
1172
1168
1219
1204
1232
1195
1197
1207
1146
1246
1143
1117
1156
1197
1168
1173
1232
1283
1210
1199
1200
1197
1152
1169
1198
1231
1232
1168
1157
1213
1183
1204
1159
1197
1261
1223
1190
1191
1258
1146
1130
1111
1181
1185
1152
1213
1227
1207
1194
1187
1280
1216
1194
1200
1167
1206
1152
1152
1153
1211
1241
1182
1113
1152
1200
1234
1131
1172
1169
1254
1228
1166
1093
1165
1199
1285
1222
1276
1296
1313
1394
1328
1242
1214
1273
1264
1215
1198
1168
1239
1350
1297
1232
1305
1326
1262
1147
1115
1248
1306
1296
1222
1207
1137
1175
1213
1215
1104
1151
1165
1056
1102
1091
1139
1168
1167
1171
1126
1181
1156
1168
1093
1086
1142
1142
1145
1175
1159
1146
1137
1138
1173
1111
1120
1171
1150
1155
1171
1102
1123
1168
1104
1194
1153
1189
1150
1211
1153
1261
1281
1234
1232
1230
1303
1428
1409
1375
1507
1728
1757
1893
1637
1971
1933
1777
1477
1109
848
735
642
582
781
657
774
925
915
965
993
1087
1069
1136
1095
1087
1124
1198
1262
1117
1215
1085
1134
1197
1197
1127
1137
1136
1108
1229
1214
1193
1200
1258
1229
1232
1221
1170
1205
1119
1255
1267
1277
1200
1133
1170
1119
1158
1154
1329
1259
1197
1201
1194
1179
1190
1209
1248
1178
1221
1268
1316
1302
1264
1278
1229
1181
1206
1191
1213
1231
1209
1200
1199
1233
1270
1297
1227
1259
1200
1262
1307
1292
1222
1233
1264
1237
1210
1370
1328
1380
1350
1300
1303
1345
1389
1409
1296
1283
1319
1309
1315
1278
1310
1354
1350
1302
1326
1339
1370
1344
1260
1347
1312
1241
1230
1360
1270
1278
1198
1230
1296
1306
1238
1207
1264
1269
1169
1168
1207
1104
1098
1089
1035
1061
1103
1129
1040
1145
1054
1007
1086
1107
1008
993
1104
1098
1060
1035
1003
973
1039
1104
1020
976
1049
967
1035
1081
1051
1003
1040
1018
1077
967
1111
1010
1049
1109
1103
1023
977
1036
1057
1072
1045
1106
1101
1088
1134
1069
1059
1030
1008
1008
1053
1159
1186
1135
1097
1088
1098
1161
1149
1133
1136
1121
1108
1131
1122
1194
1185
1113
1213
1226
1151
1201
1156
1143
1175
1189
1186
1114
1102
1157
1124
1138
1120
1184
1151
1184
1160
1170
1120
1105
1107
1141
1221
1217
1232
1156
1175
1186
1111
1140
1182
1249
1203
1206
1202
1168
1130
1223
1153
1164
1131
1152
1171
1175
1209
1233
1211
1230
1194
1136
1098
1200
1179
1173
1171
1177
1136
1098
1181
1177
1130
1214
1157
1214
1232
1210
1169
1136
1178
1250
1175
1136
1210
1246
1200
1203
1143
1110
1168
1200
1214
1136
1104
1183
1107
1200
1232
1296
1087
1154
1274
1211
1219
1161
1199
1200
1232
1263
1169
1078
1155
1151
1120
1194
1191
1226
1179
1129
1168
1136
1175
1168
1173
1221
1137
1193
1225
1203
1140
1234
1223
1200
1196
1157
1165
1193
1186
1209
1184
1163
1219
1198
1174
1206
1262
1200
1285
1174
1199
1215
1155
1107
1138
1104
1125
1172
1254
1219
1237
1040
1209
1231
1077
1147
1177
1239
1248
1255
1185
1200
1169
1193
1242
1235
1247
1163
1166
1152
1123
1152
1143
1168
1175
1392
1202
1147
1232
1262
1205
1200
1157
1165
1194
1179
1183
1167
1328
1310
1294
1232
1257
1197
1277
1179
1193
1253
1227
1289
1280
1269
1203
1254
1232
1216
1185
1217
1264
1203
1153
1040
1217
1247
1255
1263
1153
1235
1185
1179
1092
1129
1104
1088
1248
1133
1136
1139
1168
1195
1092
1171
1141
1170
1196
1152
1147
1097
1136
1135
1072
942
1078
1105
1131
1136
1163
1162
1125
1110
1147
1157
1175
1101
1073
1095
1094
1126
1188
1211
1254
1209
1220
1264
1235
1310
1322
1442
1495
1566
1535
1600
1750
1886
2031
2094
1989
1734
1381
1058
813
662
609
605
785
837
742
968
953
975
1071
1066
1078
1098
1102
1115
1090
1098
1169
1136
1174
1124
1147
1042
1168
1155
1193
1174
1152
1182
1184
1152
1103
1099
1186
1185
1136
1238
1077
1147
1231
1264
1269
1186
1168
1140
1181
1200
1257
1264
1164
1136
1165
1185
1187
1203
1207
1214
1216
1200
1232
1239
1185
1229
1269
1206
1136
1239
1232
1279
1200
1207
1190
1234
1197
1277
1291
1390
1326
1403
1239
1264
1324
1345
1251
1280
1301
1243
1239
1310
1316
1264
1328
1318
1383
1361
1335
1327
1443
1282
1376
1232
1285
1375
1347
1299
1283
1296
1314
1345
1392
1337
1264
1275
1280
1319
1360
1339
1335
1223
1279
1309
1268
1259
1296
1343
1216
1187
1130
1072
1156
1239
1136
1162
1088
1072
1055
1057
1072
1104
1095
1049
1068
1075
1103
1083
1065
1129
1059
963
1051
1022
989
913
1023
1127
1088
1115
1047
1042
1035
1045
1191
1104
1051
993
1037
976
1034
1072
1094
1051
1119
919
1081
1053
1045
1088
1097
1072
895
1059
1075
1232
1137
1199
1103
1181
1151
1216
1200
1119
1034
1136
1067
1089
1140
1212
1238
1232
1158
1105
1149
1184
1130
1090
1216
1254
1248
1162
1119
1168
1191
1173
1123
1135
1136
1146
1198
1124
1166
1107
1200
1202
1362
1187
1262
1118
1142
1083
1085
1165
1202
1147
1284
1206
1145
1195
1165
1211
1138
1193
1282
1200
1225
1168
1127
1168
1129
1152
1117
1111
1165
1164
1128
1181
1114
1271
1163
1095
1142
1158
1104
1221
1139
1148
1170
1203
1236
1195
1179
1157
1111
1182
1143
1173
1196
1168
1199
1190
1119
1170
1175
1119
1128
1093
1166
1137
1167
1168
1219
1177
1173
1178
1200
1158
1225
1261
1180
1200
1151
1117
1199
1254
1181
1163
1197
1216
1117
1136
1155
1157
1178
1219
1168
1183
1146
1194
1127
1104
1104
1143
1149
1173
1168
1163
1168
1126
1165
1170
1183
1221
1153
1218
1131
1097
1136
1141
1107
1238
1210
1136
1167
1235
1196
1185
1228
1215
1115
1116
1168
1157
1186
1195
1249
1227
1186
1136
1150
1235
1221
1127
1100
1121
1141
1213
1168
1161
1184
1102
1136
1107
1147
1151
1173
1219
1241
1190
1184
1136
1173
1165
1220
1229
1264
1223
1229
1208
1173
1237
1277
1216
1263
1222
1155
1241
1199
1165
1211
1208
1213
1223
1146
1154
1246
1200
1203
1217
1216
1107
1122
1117
1123
1107
1104
1155
1157
1073
1105
1165
1067
1023
1047
1116
1111
1138
1072
1105
1120
1104
1066
1157
1212
1117
1105
1129
1103
1053
1087
1104
1104
1091
1173
1105
1074
1104
1187
1071
1061
1104
1129
1125
1152
1189
1152
1258
1387
1364
1357
1413
1535
1612
1663
1633
1789
1909
1934
1883
1722
1360
678
875
1072
496
613
551
817
869
952
912
919
1061
1113
986
1127
1089
1078
1067
1083
1115
1139
1162
1071
1103
1105
1097
1164
1141
1091
1089
1054
1155
1157
1197
1191
1197
1156
1088
1086
1227
1158
1113
1173
1194
1214
1168
1160
1159
1118
1143
1134
1177
1187
1175
1136
1127
1134
1200
1136
1203
1183
1264
1157
1130
1186
1175
1230
1263
1210
1214
1201
1212
1206
1231
1235
1302
1227
1207
1217
1294
1298
1249
1347
1231
1258
1238
1231
1311
1331
1328
1271
1230
1216
1307
1222
1236
1267
1338
1319
1296
1325
1303
1339
1346
1317
1273
1289
1298
1265
1348
1353
1404
1274
1242
1297
1232
1299
1257
1240
1281
1270
1200
1273
1283
1168
1201
1253
1211
1079
1057
1051
1104
1136
1095
1095
1062
1077
1123
1072
1107
1010
1039
1153
1046
1039
1035
944
927
1001
999
933
1014
944
980
977
976
960
960
1019
1062
1077
1082
992
1050
1098
1043
1065
1093
1023
967
997
1056
1015
1041
1006
1013
1047
1071
1092
1155
1152
1121
1040
1057
1070
1085
1094
1023
1015
1034
1066
1008
1070
1095
1179
1167
1120
1177
1186
1139
1165
1177
1102
1105
1073
1083
1185
1185
1150
1125
1152
1125
1115
1088
1125
1165
1205
1129
1136
1231
1174
1149
1122
1216
1163
1197
1172
1184
1168
1265
1190
1182
1177
1150
1200
1107
1133
1147
1179
1156
1118
1149
1137
1143
1107
1098
1112
1186
1168
1194
1241
1257
1162
1078
1144
1175
1200
1131
1078
1092
1158
1182
1200
1200
1199
1178
1125
1139
1169
1135
1144
1191
1143
1138
1107
1166
1202
1193
1161
1112
1138
1161
1183
1116
1132
1131
1167
1134
1168
1189
1168
1175
1207
1151
1166
1142
1177
1117
1165
1204
1200
1199
1147
1149
1218
1222
1170
1200
1171
1179
1121
1139
1130
1211
1159
1155
1104
1121
1115
1086
1142
1168
1238
1218
1117
1136
1163
1197
1168
1184
1136
1205
1122
1151
1168
1136
1159
1200
1122
1157
1232
1168
1168
1197
1199
1137
1125
1135
1149
1209
1131
1127
1175
1267
1235
1224
1259
1266
1200
1175
1225
1260
1264
1301
1351
1242
1278
1199
1242
1254
1189
1168
1198
1289
1201
1215
1225
1220
1215
1240
1239
1201
1179
1160
1170
1151
1168
1185
1198
1136
1088
1097
1103
1140
1094
1167
1136
1120
1073
1162
1089
1071
1114
1083
1120
1056
1111
1223
1130
1121
1143
1103
1092
1087
1142
1076
1155
1135
1138
1168
1101
1152
1145
1168
1136
1083
1051
1043
1140
1202
1204
1285
1243
1281
1309
1392
1393
1405
1439
1505
1516
1712
2016
1848
2038
1934
1744
1443
1076
826
693
624
691
670
762
883
926
948
974
1052
1046
1142
1200
1161
1211
1082
1089
1114
1089
1090
1095
1188
1145
1121
1136
1120
1104
1088
1051
1105
1171
1157
1165
1152
1189
1168
1130
1159
1279
1293
1168
1201
1104
1168
1185
1232
1154
1195
1201
1216
1231
1176
1150
1232
1289
1243
1281
1206
1226
1275
1277
1198
1210
1255
1201
1211
1239
1223
1239
1206
1255
1200
1196
1263
1270
1328
1298
1217
1283
1232
1168
1177
1209
1283
1354
1354
1331
1250
1271
1296
1320
1255
1238
1259
1261
1279
1297
1326
1334
1363
1264
1344
1380
1408
1392
1303
1392
1412
1370
1367
1366
1247
1238
1279
1382
1403
1267
1261
1329
1271
1232
1232
1231
1262
1406
1175
1231
1154
1168
1159
1183
1137
1173
1112
1114
1011
1069
1067
1127
1094
1103
1129
1050
1023
1013
911
933
935
971
1031
1045
1057
1041
1039
1053
1023
1063
1013
1001
1007
1053
1053
1042
1050
1050
1072
1078
1133
1154
1132
1110
1101
1104
1139
1072
1291
1216
1119
1059
1039
1050
1067
1085
1216
1142
1110
1182
1075
990
1087
1109
1170
1162
1164
1088
1088
1146
1034
1107
1089
1155
1220
1183
1175
1145
1142
1121
1104
1118
1166
1168
1135
1133
1156
1168
1136
1207
1209
1197
1182
1184
1194
1194
1263
1183
1115
1142
1267
1149
1282
1178
1191
1241
1148
1118
1120
1107
1182
1248
1263
1227
1189
1283
1274
1127
1136
1138
1175
1142
1173
1168
1181
1210
1193
1093
1098
1179
1168
1222
1182
1229
1203
1196
1218
1219
1170
1131
1126
1173
1173
1197
1193
1200
1257
1170
1173
1221
1221
1200
1149
1132
1157
1168
1130
1243
1312
1337
1239
1107
1149
1193
1229
1171
1193
1195
1229
1229
1159
1225
1180
1205
1215
1282
1241
1178
1149
1124
1139
1182
1216
1173
1165
1199
1138
1136
1154
1212
1237
1175
1213
1198
1215
1231
1214
1184
1210
1179
1225
1226
1262
1296
1245
1159
1227
1227
1141
1203
1151
1174
1316
1331
1160
1168
1203
1194
1211
1232
1191
1143
1143
1248
1183
1227
1207
1213
1177
1188
1229
1154
1184
1186
1185
1227
1173
1245
1195
1232
1200
1178
1277
1275
1201
1231
1189
1164
1219
1233
1232
1243
1195
1250
1232
1161
1227
1219
1165
1178
1223
1259
1183
1227
1178
1203
1210
1162
1187
1190
1145
1161
1228
1266
1234
1193
1216
1230
1252
1191
1127
1134
1134
1203
1180
1172
1150
1275
1266
1214
1226
1222
1200
1200
1197
1261
1266
1230
1230
1248
1253
1184
1272
1136
1173
1230
1315
1241
1158
1244
1265
1181
1173
1180
1136
1163
1322
1202
1246
1306
1239
1148
1121
1146
1166
1167
1251
1248
1332
1255
1228
1242
1209
1213
1271
1251
1232
1314
1197
1264
1258
1221
1267
1325
1366
1327
1302
1250
1298
1292
1229
1232
1328
1328
1298
1337
1200
1259
1200
1219
1231
1251
1188
1269
1244
1255
1235
1195
1125
1127
1143
1111
1142
1113
1218
1190
1108
1124
1141
1203
1189
1166
1106
1200
1246
1166
1105
1137
1232
1194
1238
1264
1262
1145
1155
1212
1156
1131
1098
1218
1155
1167
1180
1181
1181
1138
1201
1156
1217
1280
1249
1267
1309
1470
1377
1488
1535
1650
1680
1824
1947
1977
1986
2032
1755
1387
1103
956
715
651
741
831
821
813
961
908
1039
1050
1095
1082
1037
1056
1141
1157
1147
1186
1162
1141
1149
1060
1055
1259
1189
1117
1104
1135
1168
1170
1214
1129
1151
1231
1170
1286
1229
1233
1181
1157
1152
1184
1209
1231
1219
1168
1203
1269
1217
1154
1216
1284
1258
1230
1218
1233
1311
1230
1231
1146
1261
1301
1296
1295
1214
1274
1213
1258
1281
1254
1296
1346
1279
1258
1264
1258
1295
1254
1294
1281
1333
1296
1275
1309
1287
1408
1306
1216
1210
1342
1350
1344
1247
1264
1305
1296
1285
1332
1445
1386
1422
1357
1295
1312
1357
1386
1373
1323
1344
1424
1424
1381
1369
1286
1310
1282
1389
1383
1282
1274
1349
1296
1280
1179
1225
1277
1248
1297
1249
1180
1209
1174
1144
1152
1233
1102
1172
1005
1073
991
1032
1022
1073
1055
1022
1069
1039
1008
1019
1094
1090
1033
1056
1119
976
1010
1062
1049
995
1023
1101
1051
992
1053
1141
1175
1133
1163
1063
1077
1007
1031
1058
1105
1087
1067
1079
1157
1062
1142
1072
1104
1097
1147
1203
1157
1161
1168
1168
1142
1173
1049
1104
1157
1191
1110
1159
1155
1134
1117
1193
1179
1229
1211
1110
1130
1206
1203
1153
1191
1157
1139
1112
1218
1163
1160
1125
1175
1137
1169
1161
1167
1207
1219
1284
1211
1245
1215
1267
1238
1168
1168
1171
1225
1247
1277
1245
1181
1278
1254
1168
1175
1262
1254
1169
1143
1185
1211
1139
1151
1185
1232
1170
1195
1223
1238
1210
1200
1172
1158
1211
1248
1222
1217
1194
1200
1255
1226
1142
1178
1210
1174
1190
1138
1171
1216
1194
1212
1201
1193
1212
1242
1104
1238
1177
1252
1239
1242
1169
1168
1232
1156
1216
1195
1208
1245
1153
1158
1207
1232
1094
1125
1200
1310
1266
1233
1296
1220
1210
1180
1169
1161
1124
1104
1214
1201
1200
1197
1264
1133
1155
1179
1161
1211
1216
1181
1151
1199
1245
1223
1233
1168
1265
1232
1206
1241
1260
1232
1231
1200
1213
1138
1150
1182
1239
1249
1299
1270
1248
1222
1112
1193
1131
1262
1201
1228
1232
1141
1135
1200
1261
1197
1104
1136
1212
1234
1217
1232
1245
1269
1274
1262
1200
1141
1143
1232
1206
1218
1280
1295
1235
1206
1194
1246
1328
1369
1291
1319
1334
1275
1264
1259
1298
1257
1262
1277
1225
1275
1222
1223
1200
1209
1313
1326
1279
1225
1197
1168
1262
1202
1201
1184
1073
1060
1136
1187
1199
1141
1114
1161
1132
1199
1152
1147
1130
1168
1171
1138
1219
1181
1205
1139
1102
1205
1211
1153
1168
1158
1168
1216
1163
1165
1201
1222
1185
1200
1210
1183
1138
1180
1125
1167
1247
1287
1216
1296
1319
1405
1429
1458
1503
1415
1612
1701
1821
1932
2032
2075
1882
1617
1216
956
769
705
656
688
757
895
896
925
992
991
1054
1142
1158
1219
1186
1219
1123
1101
1139
1173
1141
1234
1180
1166
1068
1149
1159
1088
1157
1085
1113
1200
1187
1242
1214
1201
1169
1182
1100
1199
1281
1209
1235
1194
1200
1244
1291
1232
1185
1156
1211
1247
1232
1277
1211
1260
1223
1265
1214
1200
1233
1229
1246
1305
1264
1210
1202
1243
1351
1266
1233
1295
1220
1297
1248
1309
1259
1238
1233
1239
1274
1357
1274
1334
1241
1391
1328
1328
1380
1271
1225
1193
1331
1393
1326
1355
1359
1311
1312
1328
1421
1430
1331
1319
1392
1360
1385
1360
1382
1344
1296
1359
1397
1402
1360
1321
1310
1351
1343
1382
1331
1273
1280
1269
1280
1196
1246
1217
1258
1254
1135
1116
1171
1113
1118
1072
1115
1068
1090
1053
1054
1139
1116
1094
1020
1000
1041
1053
994
1072
1015
966
976
1023
1104
1011
961
997
1014
1066
1083
1072
1072
1115
1098
1041
1050
1038
1081
1102
1081
1053
1067
1039
1098
1105
1038
1119
1154
1177
1186
1115
1147
1133
1088
1118
1142
1117
1102
1079
1113
1117
1050
1138
1141
1134
1168
1158
1146
1173
1127
1144
1125
1110
1111
1143
1274
1226
1177
1219
1116
1201
1198
1235
1100
1168
1195
1168
1185
1219
1231
1248
1222
1231
1201
1168
1136
1152
1175
1222
1167
1156
1238
1233
1203
1209
1229
1226
1198
1168
1193
1216
1189
1139
1093
1235
1216
1180
1200
1186
1214
1200
1173
1215
1148
1209
1218
1182
1307
1234
1297
1168
1188
1137
1233
1216
1149
1190
1111
1152
1213
1286
1214
1206
1092
1111
1231
1186
1126
1079
1227
1295
1297
1155
1198
1172
1146
1139
1155
1200
1185
1233
1247
1150
1113
1214
1205
1231
1171
1200
1166
1188
1259
1207
1121
1166
1237
1182
1222
1157
1221
1142
1139
1077
1153
1145
1229
1178
1214
1180
1243
1286
1263
1247
1247
1177
1229
1138
1166
1111
1162
1158
1216
1139
1200
1157
1168
1168
1181
1216
1196
1115
1203
1232
1254
1195
1200
1267
1286
1197
1151
1109
1144
1166
1259
1257
1191
1212
1262
1174
1138
1188
1237
1261
1262
1222
1200
1214
1287
1217
1210
1241
1215
1234
1193
1140
1177
1179
1166
1203
1182
1246
1161
1170
1130
1173
1168
1149
1195
1245
1232
1270
1198
1141
1167
1139
1228
1167
1241
1223
1194
1205
1242
1223
1241
1194
1194
1123
1124
1237
1182
1248
1255
1177
1283
1165
1168
1155
1175
1148
1226
1301
1185
1165
1178
1201
1156
1169
1215
1200
1243
1195
1203
1251
1210
1172
1139
1212
1231
1240
1168
1136
1216
1202
1229
1233
1216
1187
1235
1221
1296
1313
1266
1270
1266
1264
1326
1382
1297
1204
1297
1136
1202
1227
1208
1200
1191
1206
1250
1282
1230
1281
1207
1189
1200
1154
1143
1122
1198
1167
1095
1084
1143
1097
1137
1120
1167
1160
1129
1168
1141
1206
1077
1094
1211
1217
1123
1178
1151
1229
1185
1194
1131
1202
1201
1131
1134
1078
1134
1091
1088
1105
1163
1155
1097
1085
1152
1200
1211
1212
1262
1229
1222
1350
1423
1415
1488
1605
1642
1682
1834
1936
2082
2032
1578
1854
1273
944
763
688
646
752
694
778
863
948
1040
1082
1119
1088
1062
1113
1199
1168
1158
1152
1030
1040
1139
1100
1147
1232
1195
1170
1124
1119
1072
1146
1170
1209
1141
1168
1171
1161
1169
1223
1214
1215
1168
1171
1206
1106
1087
1073
1206
1210
1163
1214
1197
1241
1200
1182
1245
1228
1214
1222
1168
1210
1235
1252
1212
1296
1328
1219
1183
1142
1151
1309
1237
1157
1325
1280
1239
1247
1208
1220
1271
1301
1296
1226
1194
1232
1274
1264
1207
1264
1219
1263
1312
1355
1360
1264
1295
1302
1356
1378
1280
1296
1343
1382
1329
1315
1279
1329
1329
1269
1316
1295
1339
1323
1331
1319
1306
1309
1310
1293
1328
1321
1241
1377
1279
1347
1284
1247
1303
1230
1263
1233
1093
1177
1127
1153
1131
1066
1079
1078
1088
1085
1063
1106
1011
999
999
962
1050
1056
995
1067
1008
1009
999
1088
1093
1079
1078
1047
1104
1017
1008
1075
1081
1011
965
1075
1101
1072
1045
1089
1139
1089
1094
1155
1136
1088
1079
1036
1071
1090
1104
1139
1089
1058
1071
1136
1232
1203
1104
1061
1094
1122
1136
1053
1159
1098
1149
1166
1110
1136
1088
1118
1178
1104
1168
1081
1136
1122
1154
1216
1168
1173
1138
1177
1155
1171
1174
1103
1117
1182
1235
1206
1142
1184
1150
1198
1186
1171
1167
1157
1146
1225
1292
1155
1088
1136
1215
1249
1133
1223
1229
1267
1145
1200
1161
1175
1168
1157
1189
1158
1197
1153
1232
1229
1169
1213
1169
1136
1136
1199
1198
1186
1216
1167
1152
1154
1177
1158
1200
1252
1230
1179
1169
1166
1154
1175
1145
1147
1232
1217
1234
1158
1205
1246
1209
1150
1169
1217
1186
1149
1135
1126
1254
1268
1221
1158
1203
1171
1165
1239
1087
1142
1127
1113
1164
1215
1200
1137
1203
1232
1168
1168
1170
1169
1198
1202
1204
1259
1180
1168
1196
1246
1194
1118
1139
1187
1150
1150
1232
1183
1168
1219
1191
1215
1259
1180
1146
1151
1170
1209
1222
1153
1165
1202
1228
1205
1185
1130
1237
1253
1233
1254
1274
1207
1185
1158
1106
1124
1148
1200
1226
1195
1238
1147
1183
1147
1125
1151
1210
1226
1223
1187
1159
1215
1170
1228
1211
1183
1249
1234
1147
1159
1183
1247
1275
1168
1220
1177
1160
1200
1188
1216
1198
1123
1221
1104
1198
1170
1275
1262
1261
1215
1215
1239
1246
1278
1296
1261
1263
1299
1285
1324
1216
1211
1267
1247
1280
1216
1287
1262
1291
1264
1254
1286
1227
1178
1213
1247
1234
1264
1119
1213
1155
1222
1242
1127
1117
1152
1120
1087
1203
1210
1120
1122
1152
1163
1111
1111
1142
1125
1213
1184
1137
1088
1185
1217
1104
1082
1099
1168
1084
1211
1125
1232
1197
1168
1146
1130
1111
1127
1195
1216
1216
1136
1233
1263
1233
1217
1255
1190
1369
1360
1436
1427
1499
1607
1527
1635
1737
1914
1950
1973
1836
1520
1228
776
912
631
608
623
704
943
1021
796
891
997
1067
1104
1097
1085
1127
1144
1211
1159
1090
1163
1178
1109
1136
1183
1166
1131
1163
1102
1174
1129
1200
1191
1200
1225
1170
1205
1186
1163
1197
1248
1207
1150
1187
1253
1163
1218
1229
1151
1187
1136
1243
1310
1286
1314
1262
1183
1138
1204
1143
1170
1203
1264
1274
1261
1233
1248
1246
1191
1189
1310
1264
1242
1203
1147
1334
1197
1393
1222
1291
1166
1255
1269
1289
1284
1243
1264
1223
1296
1242
1284
1255
1277
1288
1293
1305
1332
1403
1354
1351
1350
1378
1333
1339
1303
1312
1354
1287
1297
1367
1409
1343
1377
1378
1435
1321
1335
1320
1306
1370
1238
1344
1252
1342
1267
1280
1317
1301
1233
1178
1136
1181
1146
1196
1198
1089
1070
1099
1119
1103
1088
1098
1113
1022
1050
935
1017
1045
970
976
1062
1046
927
1037
931
1013
1010
1023
1091
1047
1061
1005
986
994
1051
995
1051
1067
1058
1071
1134
1072
1067
1103
1114
1120
1089
1090
1023
1053
1109
1109
1063
1089
1191
1169
1063
1076
1132
1133
1164
1127
1181
1145
1142
1046
1104
1122
1127
1165
1113
1115
1147
1088
1113
1085
1170
1144
1213
1206
1183
1157
1159
1088
1103
1136
1225
1184
1174
1140
1168
1166
1202
1186
1221
1232
1212
1136
1138
1163
1152
1152
1175
1200
1222
1162
1138
1171
1215
1222
1106
1151
1203
1237
1239
1180
1159
1136
1248
1211
1141
1159
1162
1162
1154
1084
1165
1156
1317
1245
1136
1135
1143
1116
1188
1206
1233
1177
1242
1200
1136
1103
1163
1255
1246
1185
1136
1184
1191
1197
1113
1136
1202
1175
1201
1186
1156
1143
1167
1247
1191
1228
1249
1246
1200
1190
1195
1200
1104
1118
1199
1226
1168
1130
1165
1149
1174
1169
1187
1170
1196
1220
1216
1159
1200
1200
1178
1153
1138
1139
1204
1205
1221
1187
1182
1109
1168
1119
1202
1164
1168
1206
1193
1155
1154
1210
1187
1206
1219
1232
1268
1185
1255
1238
1221
1232
1117
1075
1075
1157
1254
1200
1205
1118
1190
1122
1152
1119
1237
1200
1200
1136
1152
1148
1165
1232
1181
1156
1221
1187
1201
1177
1195
1283
1168
1326
1184
1143
1128
1108
1206
1167
1115
1149
1155
1152
1169
1132
1184
1170
1179
1162
1161
1223
1275
1269
1216
1133
1077
1128
1264
1263
1194
1203
1275
1232
1200
1172
1125
1136
1174
1181
1169
1130
1203
1245
1233
1202
1177
1124
1184
1130
1152
1178
1218
1251
1200
1166
1121
1149
1151
1173
1203
1181
1166
1234
1163
1231
1225
1135
1212
1170
1161
1160
1244
1235
1283
1165
1131
1167
1262
1205
1131
1169
1259
1137
1149
1193
1217
1170
1253
1179
1134
1118
1165
1203
1199
1219
1265
1200
1253
1245
1166
1149
1106
1133
1216
1119
1146
1168
1103
1226
1202
1211
1226
1229
1173
1262
1218
1247
1200
1200
1201
1210
1226
1204
1264
1232
1274
1258
1298
1335
1259
1201
1270
1232
1253
1264
1263
1225
1255
1301
1332
1219
1168
1201
1193
1182
1184
1223
1240
1168
1264
1287
1244
1150
1137
1168
1158
1109
1115
1113
1120
1137
1159
1070
1101
1195
1173
1173
1166
1134
1085
1103
1154
1177
1170
1188
1107
1152
1119
1195
1099
1127
1062
1197
1119
1153
1157
1130
1170
1202
1140
1203
1254
1192
1194
1210
1309
1303
1234
1200
1232
1359
1615
1487
1566
1601
1815
1729
1936
2101
2019
1911
1184
1632
948
784
643
607
686
762
881
887
993
1104
1033
999
1089
1091
1077
1097
1178
1125
1104
1168
1168
1072
1087
1118
1200
1111
1107
1168
1159
1152
1133
1157
1136
1114
1126
1233
1228
1136
1139
1151
1177
1259
1217
1169
1184
1183
1195
1139
1168
1157
1157
1248
1200
1221
1185
1249
1299
1199
1187
1147
1200
1232
1220
1199
1253
1294
1253
1210
1190
1193
1232
1232
1208
1197
1254
1235
1307
1252
1269
1293
1277
1297
1254
1296
1281
1316
1264
1266
1355
1206
1305
1251
1301
1286
1278
1268
1360
1396
1354
1329
1355
1301
1345
1406
1375
1296
1357
1344
1328
1323
1374
1345
1329
1339
1348
1427
1360
1294
1335
1315
1330
1310
1265
1216
1285
1233
1227
1195
1188
1179
1143
1126
1181
1184
1214
1202
1117
1183
1154
1168
1172
1121
1055
977
1110
1072
1078
1143
1010
1023
976
994
973
961
930
951
970
1040
1031
1044
1012
1070
1073
1019
960
1120
1135
1022
1050
907
997
1155
1086
1033
1038
1041
1083
1101
1090
1099
1021
1066
1096
1120
1122
1081
1094
1125
1078
1072
1075
1095
1119
1044
1139
1151
1117
1088
1117
1148
1136
1123
1071
1072
1115
1109
1111
1098
1151
1168
1104
1144
1208
1202
1067
1104
1169
1182
1190
1109
1175
1136
1187
1106
1113
1152
1191
1225
1231
1178
1213
1153
1215
1206
1252
1218
1182
1166
1177
1168
1178
1138
1168
1131
1172
1152
1232
1248
1230
1138
1149
1200
1146
1251
1271
1205
1152
1131
1151
1136
1226
1131
1239
1217
1216
1162
1155
1159
1167
1170
1254
1185
1274
1221
1104
1118
1158
1232
1216
1213
1197
1250
1162
1235
1193
1232
1203
1167
1108
1136
1104
1235
1207
1149
1213
1208
1172
1165
1199
1154
1216
1159
1209
1149
1135
1226
1167
1152
1179
1207
1145
1207
1173
1152
1136
1158
1177
1238
1146
1233
1124
1159
1216
1217
1183
1186
1173
1249
1280
1152
1173
1173
1108
1115
1219
1220
1214
1171
1189
1115
1113
1158
1150
1169
1171
1125
1200
1182
1200
1168
1167
1187
1245
1260
1184
1181
1125
1166
1200
1180
1219
1246
1087
1122
1155
1111
1197
1185
1136
1201
1206
1188
1218
1153
1168
1183
1168
1241
1212
1138
1174
1138
1127
1263
1203
1201
1244
1317
1174
1126
1219
1214
1230
1130
1146
1187
1200
1189
1287
1273
1169
1152
1123
1247
1248
1211
1249
1267
1265
1202
1253
1232
1262
1188
1202
1251
1259
1285
1251
1296
1168
1282
1228
1216
1167
1162
1198
1290
1328
1419
1221
1223
1167
1246
1232
1127
1167
1131
1299
1117
1121
1085
1080
1073
1109
1072
1042
1087
1136
1155
1125
1159
1120
1045
1053
1099
1183
1168
1226
1150
1072
1038
1089
1200
1137
1264
1184
1155
1140
1130
1167
1168
1153
1122
1104
1168
1124
1122
1218
1187
1283
1267
1283
1245
1297
1344
1425
1572
1535
1677
1635
2018
1889
1951
1822
1414
1743
1120
915
726
549
505
592
761
891
886
908
976
1066
1091
1105
1073
1043
1140
1092
1104
1154
1088
1098
1165
1111
1180
1158
1202
1147
1155
1120
1158
1237
1158
1091
1116
1182
1132
1095
1231
1273
1218
1091
1200
1162
1162
1220
1157
1212
1199
1216
1189
1149
1158
1171
1229
1301
1194
1143
1157
1161
1121
1173
1152
1221
1264
1218
1298
1265
1325
1197
1280
1084
1091
1205
1242
1245
1272
1267
1260
1309
1236
1290
1242
1334
1306
1264
1275
1271
1277
1252
1278
1296
1285
1332
1329
1355
1357
1431
1296
1287
1280
1328
1366
1386
1347
1342
1376
1394
1315
1248
1283
1411
1341
1399
1360
1366
1368
1370
1361
1294
1234
1283
1398
1285
1330
1328
1274
1287
1190
1175
1183
1177
1123
1117
1171
1168
1222
1153
1008
1018
1130
1008
1075
997
1134
1050
1041
1090
1008
1055
962
1111
998
1104
944
1018
1023
877
1015
1101
1098
1015
1023
1061
1023
1047
1045
1088
1102
1008
1081
1041
1054
1091
1078
1056
1104
1115
1158
1051
1056
1023
1039
1060
1072
1111
1023
1094
1168
1152
1143
1185
1119
1076
1087
1126
1168
1063
1110
1072
1088
1168
1215
1093
1142
1152
1187
1168
1165
1124
1021
1131
1133
1072
1133
1170
1159
1185
1136
1183
1214
1159
1187
1211
1163
1057
1206
1167
1217
1242
1222
1300
1239
1113
1168
1117
1075
1095
1179
1264
1263
1271
1202
1177
1236
1175
1228
1184
1246
1170
1154
1266
1293
1217
1217
1136
1136
1177
1177
1178
1157
1193
1126
1106
1200
1183
1206
1234
1209
1150
1216
1137
1183
1234
1198
1165
1201
1147
1198
1271
1264
1163
1183
1200
1183
1303
1299
1206
1138
1136
1152
1237
1217
1177
1280
1218
1136
1168
1126
1176
1180
1194
1168
1126
1106
1229
1235
1264
1219
1135
1086
1140
1199
1179
1147
1200
1166
1125
1179
1145
1195
1187
1200
1183
1177
1248
1247
1231
1140
1168
1161
1168
1212
1147
1183
1171
1190
1232
1299
1179
1295
1282
1218
1133
1136
1238
1168
1232
1249
1119
1162
1094
1111
1234
1256
1298
1182
1194
1229
1237
1163
1162
1219
1241
1273
1264
1268
1326
1307
1232
1170
1149
1242
1189
1246
1223
1226
1245
1301
1271
1274
1248
1218
1247
1252
1272
1178
1162
1167
1189
1248
1232
1249
1184
1141
1115
1088
1072
1091
1072
1163
1095
1125
1083
1085
1084
1174
1205
1139
1101
1104
1108
1133
1040
1147
1173
1209
1187
1214
1226
1140
1082
1042
1104
1121
1135
1198
1143
1161
1146
1186
1189
1153
1114
1189
1152
1129
1202
1178
1218
1252
1344
1360
1379
1386
1614
1556
1712
1679
1842
1931
1937
1904
1842
1590
1248
964
794
683
656
703
752
816
939
960
1021
1008
1067
1008
1083
1100
1072
1134
1088
1139
1089
1023
1098
1136
1136
1091
1074
1159
1166
1134
1136
1152
1198
1195
1072
1232
1147
1263
1239
1141
1179
1190
1158
1203
1177
1176
1142
1125
1184
1319
1203
1216
1163
1220
1232
1179
1147
1139
1197
1204
1273
1268
1227
1204
1247
1150
1250
1219
1226
1210
1264
1253
1226
1162
1201
1263
1363
1346
1274
1351
1193
1209
1243
1246
1218
1299
1328
1359
1279
1343
1285
1326
1280
1275
1280
1214
1279
1323
1340
1377
1363
1393
1354
1259
1275
1306
1303
1334
1437
1427
1259
1350
1399
1315
1323
1355
1332
1264
1264
1223
1264
1341
1303
1290
1270
1376
1299
1242
1216
1137
1153
1238
1181
1168
1189
1216
1139
1075
1133
1077
1060
1039
1072
1046
1034
1031
1006
1023
1023
1065
1059
1069
1037
996
951
997
1023
1082
981
1072
1056
1021
982
1012
1063
1047
1136
1104
1022
1023
1047
1002
1077
1124
1072
1109
1072
1094
1151
1168
1202
1101
1042
1007
1023
1113
1068
1091
1073
1094
1073
1118
1088
1087
1082
1180
1130
1124
1115
1247
1150
1140
1168
1210
1134
1114
1067
1126
1168
1200
1184
1137
1116
1195
1183
1165
1111
1168
1214
1224
1151
1197
1239
1261
1186
1216
1142
1062
1136
1221
1163
1240
1041
1065
1086
1147
1228
1152
1169
1191
1188
1230
1251
1143
1109
1102
1123
1183
1227
1232
1154
1152
1169
1213
1237
1168
1171
1115
1152
1267
1202
1199
1260
1222
1181
1171
1139
1088
1211
1179
1252
1232
1235
1090
1137
1152
1222
1123
1210
1211
1247
1254
1187
1203
1235
1174
1152
1274
1248
1169
1136
1071
1038
1074
1170
1136
1132
1133
1185
1187
1168
1200
1213
1156
1163
1158
1200
1071
1068
1211
1221
1216
1143
1245
1058
1082
1228
1253
1218
1227
1234
1200
1200
1205
1222
1199
1185
1274
1207
1152
1120
1135
1184
1245
1253
1207
1181
1180
1133
1155
1065
1191
1227
1199
1177
1136
1127
1221
1248
1219
1198
1231
1200
1165
1136
1132
1217
1252
1115
1105
1200
1223
1008
1289
1187
1189
1222
1238
1257
1138
1258
1184
1237
1296
1181
1158
1173
1193
1269
1200
1247
1151
1172
1203
1220
1150
1128
1222
1136
1195
1259
1165
1125
1299
1213
1247
1203
1297
1249
1171
1187
1138
1286
1219
1052
1164
1142
1130
1182
1198
1190
1302
1200
1249
991
1184
1187
1319
1144
1166
1249
1283
1253
1225
1072
1100
1151
1197
1206
1171
1222
1149
1168
1136
1167
1262
1207
1173
1141
1153
1141
1185
1149
1211
1222
1135
1216
1230
1245
1197
1120
1088
1142
1200
1239
1236
1249
1182
1165
1205
1223
1249
1266
1249
1214
1109
1136
1217
1165
1189
1184
1158
1178
1199
1226
1311
1222
1221
1190
1177
1203
1245
1289
1200
1232
1292
1349
1297
1233
1297
1294
1186
1155
1230
1192
1232
1244
1267
1301
1266
1168
1211
1212
1249
1270
1172
1247
1216
1107
1258
1235
1247
1147
1169
1114
1115
1189
1089
1119
1088
1190
1105
1104
1204
1173
1155
1117
1140
1149
1114
1074
1137
1143
1108
1198
1103
1063
1093
1098
1167
1250
1261
1161
1147
1184
1136
1200
1215
1139
1179
1070
1188
1185
1206
1245
1280
1291
1264
1375
1420
1521
1490
1713
1481
1845
1997
1983
1833
1961
1689
1417
1082
880
793
688
686
787
778
766
823
947
1043
1128
1138
1104
1161
1142
1127
1102
1156
1133
1106
1136
1059
1095
1108
1088
1159
1165
1243
1131
1157
1108
1106
1129
1114
1138
1117
1222
1275
1266
1168
1104
1157
1106
1168
1248
1211
1237
1198
1217
1214
1149
1280
1271
1262
1219
1202
1194
1186
1168
1121
1294
1260
1240
1161
1183
1107
1182
1216
1281
1199
1201
1265
1294
1221
1257
1172
1247
1298
1253
1233
1296
1210
1269
1231
1267
1238
1327
1290
1285
1247
1338
1281
1189
1345
1254
1232
1204
1258
1318
1342
1296
1349
1328
1312
1314
1283
1294
1348
1477
1354
1281
1232
1328
1357
1266
1233
1337
1306
1289
1298
1331
1313
1282
1249
1253
1241
1264
1263
1282
1267
1290
1264
1180
1090
1073
1108
1149
1197
1088
1162
1211
1119
1040
1082
1140
1089
1055
1037
942
1050
1105
1122
1136
1049
1088
1082
976
1013
998
1001
944
1040
1072
1034
1103
1001
1040
1061
1065
1134
1170
1023
1061
1109
1014
1057
1064
1010
1057
1040
1056
1168
1178
1079
1082
1137
1172
1106
1070
1069
1171
1182
1075
1070
1134
1141
1130
1171
1134
1101
1164
1166
1143
1136
1168
1104
1174
1115
1175
1203
1168
1099
1118
1136
1157
1148
1123
1133
1169
1147
1149
1184
1182
1158
1200
1218
1222
1267
1251
1127
1100
1088
1136
1275
1155
1126
1158
1264
1227
1175
1169
1219
1216
1215
1157
1210
1249
1235
1159
1168
1167
1218
1202
1200
1230
1259
1218
1187
1191
1117
1120
1118
1119
1190
1203
1148
1168
1163
1224
1176
1200
1214
1148
1157
1202
1095
1094
1107
1213
1217
1289
1223
1255
1217
1204
1168
1217
1131
1201
1136
1212
1189
1175
1139
1121
1166
1291
1200
1168
1154
1179
1136
1223
1217
1191
1091
1131
1097
1201
1304
1220
1057
1159
1157
1183
1168
1119
1087
1233
1098
1196
1255
1210
1168
1239
1181
1171
1161
1173
1215
1225
1226
1193
1218
1200
1216
1274
1184
1140
1154
1215
1124
1162
1264
1139
1313
1351
1264
1235
1265
1203
1280
1232
1285
1233
1269
1254
1294
1216
1202
1153
1175
1187
1183
1211
1290
1200
1211
1328
1195
1280
1161
1126
1209
1194
1173
1168
1214
1155
1097
1115
1139
1090
1049
1127
1101
1132
1104
1131
1210
1163
1127
1152
1106
1088
1152
1040
1135
1155
1098
1121
1136
1208
1110
1086
1168
1136
1141
1200
1135
1108
1137
1169
1168
1200
1161
1156
1141
1201
1282
1200
1278
1291
1229
1328
1394
1535
1563
1642
1605
1718
1799
1920
1957
1840
1535
1271
1045
825
618
671
753
805
637
956
764
976
1037
1086
1119
1150
1101
1096
1065
1042
1055
1169
1248
1161
1125
1136
1208
1247
1118
1103
1143
1168
1202
1239
1249
1205
1200
1178
1119
1111
1136
1136
1167
1207
1206
1155
1222
1181
1186
1241
1235
1227
1219
1195
1192
1202
1203
1230
1251
1189
1280
1263
1197
1213
1222
1200
1235
1235
1251
1210
1220
1210
1266
1218
1209
1232
1143
1242
1264
1287
1290
1291
1300
1278
1208
1170
1186
1265
1233
1262
1293
1303
1325
1303
1337
1291
1283
1311
1319
1371
1365
1346
1381
1350
1391
1330
1356
1359
1391
1319
1431
1415
1407
1406
1437
1322
1266
1301
1295
1296
1301
1354
1360
1290
1303
1251
1222
1209
1213
1214
1246
1168
1134
1195
1163
1168
1138
1105
1015
1104
1136
1154
1023
1006
1000
1053
1088
1090
1013
1019
1002
1067
1019
1005
944
1039
986
1079
1102
980
1011
976
1049
1087
1072
1012
1023
993
994
999
1013
1011
1011
1072
1038
1002
1019
1109
1084
1013
975
1042
1050
1125
1022
1019
1136
1104
1092
1150
1099
1179
1194
1215
1213
1161
1001
1058
1046
1076
1085
1200
1211
1159
1067
1123
1120
1168
1108
1181
1171
1171
1154
1157
1095
1092
1089
1151
1126
1206
1264
1194
1143
1123
1153
1104
1136
1168
1148
1164
1153
1142
1207
1232
1168
1118
1116
1256
1264
1247
1271
1161
1089
1088
1120
1187
1184
1160
1160
1224
1197
1154
1136
1233
1170
1232
1173
1158
1200
1165
1243
1165
1183
1168
1213
1230
1276
1202
1168
1089
1132
1170
1157
1098
1125
1185
1190
1215
1119
1167
1183
1194
1184
1240
1174
1172
1222
1187
1225
1167
1171
1191
1183
1214
1149
1174
1118
1173
1169
1174
1104
1164
1205
1180
1131
1168
1136
1183
1202
1165
1231
1142
1136
1152
1210
1201
1217
1188
1149
1179
1157
1158
1147
1185
1126
1147
1194
1216
1212
1170
1088
1141
1181
1166
1168
1149
1124
1126
1168
1135
1154
1218
1182
1195
1167
1114
1182
1197
1138
1200
1163
1139
1094
1196
1134
1191
1166
1181
1172
1223
1163
1206
1246
1286
1169
1195
1212
1205
1114
1135
1202
1143
1139
1168
1148
1127
1216
1241
1166
1181
1229
1143
1245
1232
1139
1246
1265
1203
1303
1261
1261
1197
1255
1227
1215
1257
1227
1232
1223
1296
1249
1158
1134
1143
1173
1251
1345
1209
1222
1294
1232
1171
1167
1239
1180
1201
1194
1151
1135
1145
1084
1129
1135
1124
1154
1117
1082
1088
1105
1107
1129
1110
1062
1155
1074
1125
1157
1134
1197
1115
1058
1157
1162
1078
1077
1202
1185
1218
1139
1122
1200
1165
1072
1140
1142
1121
1165
1216
1167
1106
1170
1219
1261
1210
1200
1283
1365
1424
1451
1564
1523
1623
1690
1827
1926
1973
1935
1808
1395
1104
913
760
704
719
858
800
864
830
910
1009
1013
1087
1022
1104
1192
1189
1123
1067
1123
1111
1152
1110
1132
1150
1066
1152
1185
1121
1142
1181
1157
1150
1153
1138
1156
1192
1150
1147
1213
1150
1076
1141
1152
1152
1185
1198
1244
1235
1215
1165
1208
1245
1235
1167
1156
1157
1295
1297
1210
1209
1244
1209
1255
1194
1185
1249
1257
1194
1249
1245
1175
1223
1243
1216
1293
1274
1202
1225
1162
1248
1229
1261
1225
1200
1181
1291
1259
1274
1296
1311
1299
1358
1314
1266
1279
1275
1376
1326
1277
1328
1328
1425
1363
1351
1275
1328
1370
1351
1334
1280
1328
1297
1401
1292
1248
1288
1283
1301
1371
1219
1244
1264
1255
1290
1261
1297
1237
1242
1324
1264
1187
1193
1098
1087
1091
1066
1127
1098
1113
1122
1120
1089
1067
1063
1104
980
1003
1071
1008
1023
1101
1088
1088
978
1015
970
1080
963
962
1022
993
1008
1119
1061
1037
1058
1061
1086
1095
1109
1040
1095
1099
1136
1125
1040
1037
1086
1203
1049
1143
1053
1089
1040
1148
1095
1124
1130
1104
1038
1020
1097
1138
1158
1102
1071
1145
1184
1104
1134
1070
1122
1214
1007
1173
1146
1172
1214
1278
1174
1082
1097
1209
1200
1123
1203
1241
1135
1104
1057
1116
1130
1145
1133
1109
1179
1214
1233
1190
1169
1138
1187
1167
1094
1189
1136
1185
1115
1149
1230
1215
1241
1235
1136
1078
1153
1212
1218
1130
1237
1187
1262
1277
1166
1168
1152
1256
1149
1113
1149
1142
1242
1270
1230
1127
1168
1151
1137
1108
1190
1186
1200
1137
1143
1164
1184
1194
1193
1153
1202
1263
1242
1119
1051
1259
1227
1151
1185
1186
1226
1135
1193
1162
1102
1138
1183
1184
1181
1209
1232
1199
1184
1177
1149
1182
1200
1152
1162
1139
1167
1158
1231
1168
1188
1243
1251
1210
1152
1113
1189
1076
1234
1023
1136
1264
1167
1259
1184
1149
1293
1361
1222
1133
1183
1200
1091
1133
1142
1162
1147
1171
1204
1088
1158
1023
1134
1229
1229
1199
1181
1119
1121
1104
1197
1145
1173
1158
1161
1292
1152
1169
1136
1245
1166
1155
1123
1152
1199
1250
1193
1207
1104
1164
1191
1235
1213
1151
1250
993
1227
1214
1226
1210
1197
1130
1136
1155
1202
1129
1109
1147
1146
1200
1166
1153
1183
1246
1247
1118
1229
1270
1232
1105
1197
1171
1196
1179
1222
1222
1225
1219
1220
1159
1200
1153
1245
1288
1243
1247
1227
1264
1345
1296
1321
1264
1293
1286
1262
1253
1221
1150
1262
1043
1232
1295
1243
1239
1162
1232
1266
1200
1181
1098
1203
1066
1075
1121
1155
1115
1200
1134
1149
1206
1140
1123
1151
1183
1078
1143
1113
1202
1135
1154
1063
1075
1154
1253
1189
1113
1079
1062
1034
1106
1023
1194
1161
1200
1240
1171
1169
1165
1107
1142
1194
1107
1133
1152
1305
1315
1318
1345
1459
1466
1469
1507
1520
1668
1895
1993
2070
1814
1965
1601
1282
652
968
765
645
672
799
827
850
881
1012
1089
1079
1058
1006
1141
1136
1155
1040
1072
1195
1200
1132
1092
1108
1181
1186
1102
1077
1049
1187
1198
1233
1181
1161
1192
1149
1232
1152
1141
1107
1192
1137
1202
1146
1199
1186
1246
1206
1203
1104
1139
1322
1227
1166
1152
1222
1180
1211
1191
1177
1263
1286
1220
1212
1230
1159
1232
1251
1246
1221
1213
1144
1200
1117
1188
1205
1264
1234
1197
1247
1344
1279
1261
1227
1263
1254
1202
1222
1263
1318
1250
1319
1307
1232
1218
1299
1235
1327
1234
1264
1235
1266
1290
1359
1360
1406
1342
1333
1326
1293
1285
1302
1316
1333
1264
1287
1462
1471
1367
1186
1203
1328
1265
1306
1222
1226
1235
1186
1160
1210
1248
1201
1204
1217
1131
1066
1002
1072
1039
1120
1101
1049
1019
1005
1092
1097
943
987
1034
1014
966
1035
1016
1023
994
1009
1070
958
1009
1018
1008
1104
1060
1074
1033
994
1050
1003
976
1066
1101
1040
1077
1014
1058
1052
1051
1083
1086
1094
1087
1095
1048
1023
1089
1057
1108
1098
1158
1102
1065
1104
1088
1152
1079
1100
1095
1122
1073
1129
1040
1059
1099
1107
1191
1182
1153
1099
1100
1106
1177
1296
1228
1131
1088
1132
1190
1233
1228
1143
1119
1127
1155
1154
1187
1200
1177
1216
1181
1174
1187
1152
1225
1226
1192
1207
1200
1206
1190
1143
1138
1136
1190
1202
1199
1101
1219
1147
1145
1194
1205
1182
1225
1107
1105
1103
1131
1168
1152
1184
1198
1210
1168
1205
1275
1225
1205
1174
1152
1090
1106
1157
1206
1137
1237
1209
1147
1125
1169
1259
1151
1203
1168
1219
1246
1155
1155
1115
1197
1171
1210
1236
1234
1185
1183
1185
1230
1172
1243
1212
1154
1106
1188
1162
1109
1168
1108
1187
1203
1222
1187
1139
1153
1209
1203
1181
1154
1235
1221
1225
1166
1264
1194
1275
1196
1233
1167
1091
1152
1118
1170
1233
1209
1274
1217
1221
1242
1302
1185
1200
1333
1296
1275
1361
1323
1261
1169
1311
1238
1207
1221
1200
1163
1177
1229
1344
1321
1274
1201
1185
1249
1233
1198
1184
1232
1225
1191
1136
1094
1117
1147
1105
1135
1201
1158
1092
1073
1172
1200
1203
1191
1104
1040
1103
1154
1143
1157
1122
1115
1101
1174
1189
1153
1107
1046
1113
1181
1115
1136
1203
1222
1176
1113
1136
1116
1134
1136
1206
1201
1155
1113
1219
1215
1214
1237
1299
1211
1431
1468
1479
1535
1598
1519
1872
1747
2006
1962
1966
1747
1209
1472
875
566
697
630
657
798
896
944
976
992
1061
1065
1136
1173
1084
1146
1072
1141
1136
1235
1137
1103
1161
1103
1220
1087
1151
1103
1099
1133
1175
1166
1237
1179
1226
1210
1169
1157
1289
1238
1249
1169
1153
1177
1199
1104
1257
1305
1297
1211
1126
1169
1275
1281
1199
1231
1229
1200
1216
1191
1204
1226
1263
1241
1233
1215
1240
1195
1209
1294
1232
1191
1218
1302
1328
1244
1200
1225
1253
1266
1294
1227
1267
1264
1297
1301
1302
1263
1237
1264
1282
1350
1389
1244
1360
1383
1305
1319
1295
1315
1355
1375
1420
1381
1348
1359
1378
1493
1377
1327
1273
1230
1350
1328
1401
1398
1331
1374
1328
1360
1307
1301
1279
1348
1309
1206
1185
1161
1197
1207
1195
1238
1161
1207
1161
1071
1169
1096
1060
1058
1056
1040
1088
1080
1011
1088
1050
989
1040
1046
1084
1043
1058
991
1047
1062
1130
1068
944
1039
1003
1042
1008
987
1023
1043
1039
1101
1109
1118
1005
1040
1013
1090
1106
1127
1136
1044
1056
1054
1058
1165
1138
1119
1059
1108
1091
1200
1234
1165
1147
1072
1136
1179
1120
1152
1119
1049
1094
1088
1165
1173
1166
1163
1143
1041
1130
1126
1132
1142
1173
1245
1147
1079
1090
1119
1101
1152
1153
1155
1217
1142
1136
1195
1115
1142
1205
1232
1232
1267
1215
1216
1216
1230
1175
1229
1201
1223
1227
1204
1216
1136
1147
1255
1229
1250
1253
1261
1136
1120
1136
1189
1214
1299
1284
1183
1181
1125
1191
1138
1169
1182
1230
1215
1191
1222
1215
1212
1141
1168
1171
1249
1154
1216
1175
1157
1170
1175
1227
1239
1149
1177
1166
1266
1232
1221
1216
1231
1185
1195
1133
1222
1247
1221
1252
1173
1175
1174
1142
1159
1257
1179
1246
1212
1200
1186
1220
1213
1232
1229
1215
1195
1136
1173
1142
1266
1130
1265
1170
1213
1216
1232
1159
1095
1162
1168
1182
1088
1203
1275
1259
1193
1167
1215
1177
1136
1173
1221
1169
1162
1195
1175
1203
1158
1212
1235
1200
1218
1199
1197
1295
1276
1200
1151
1184
1243
1229
1264
1250
1155
1118
1136
1147
1174
1294
1215
1189
1138
1189
1172
1306
1253
1154
1196
1169
1167
1081
1129
1312
1305
1264
1150
1200
1115
1133
1155
1140
1142
1198
1201
1217
1227
1230
1238
1179
1210
1166
1185
1202
1234
1237
1175
1183
1142
1152
1143
1257
1216
1190
1158
1181
1202
1066
1194
1205
1202
1111
1230
1291
1323
1233
1262
1220
1168
1164
1189
1185
1195
1180
1241
1216
1390
1215
1235
1254
1183
1126
1162
1182
1166
1131
1165
1165
1156
1135
1198
1255
1141
1286
1163
1217
1152
1248
1292
1232
1279
1275
1280
1213
1210
1200
1273
1283
1152
1170
1217
1213
1206
1204
1139
1233
1012
1152
1229
1264
1223
1171
1153
1101
1139
1207
1301
1300
1225
1238
1159
1222
1235
1298
1195
1206
1185
1197
1200
1264
1293
1158
1271
1350
1325
1378
1278
1232
1229
1296
1263
1297
1270
1242
1321
1302
1251
1261
1198
1354
1232
1273
1271
1263
1266
1159
1284
1298
1199
1231
1154
1131
1140
1156
1137
1225
1158
1094
1088
1097
1122
1130
1081
1135
1143
1108
1121
1118
1141
1146
1137
1156
1133
1138
1180
1146
1190
1183
1154
1140
1038
1249
1210
1259
1171
1162
1190
1165
1162
1163
1202
1239
1273
1221
1392
1175
1333
1403
1457
1516
1609
1712
1904
2003
2009
2027
1978
1649
1270
976
846
685
688
720
745
801
859
963
999
1147
1085
1110
1157
1093
1073
990
978
1072
1104
1122
1077
1130
1158
1232
1108
1091
1090
1177
1145
1158
1125
1163
1114
1145
1159
1153
1111
1150
1147
1153
1184
1137
1142
1168
1235
1190
1191
1194
1253
1254
1269
1195
1227
1239
1248
1232
1213
1247
1316
1215
1142
1193
1171
1187
1195
1200
1210
1202
1214
1232
1282
1271
1291
1058
1191
1282
1219
1292
1278
1306
1293
1324
1278
1232
1221
1298
1200
1266
1296
1254
1249
1305
1203
1189
1254
1361
1341
1309
1415
1361
1293
1299
1360
1354
1360
1341
1387
1344
1422
1344
1337
1334
1326
1290
1235
1232
1313
1280
1394
1264
1289
1260
1295
1381
1388
1267
1169
1155
1205
1296
1207
1174
1123
1152
1200
1226
1117
1169
1047
1058
1111
1115
1083
976
1110
993
1069
1200
1153
1072
1040
1067
1053
992
1043
1055
1073
1031
954
1067
993
944
1006
1015
1008
1078
1023
1094
1079
1118
1147
1040
1007
1022
1076
1072
1142
1072
1150
1080
1111
1079
1105
1091
1105
1100
1116
1176
1102
1088
1070
1100
1133
1094
1200
1190
1259
1219
1136
996
1085
1210
1272
1011
1155
1057
1105
1136
1098
1081
1150
1131
1143
1177
1209
1182
1138
1119
1220
1158
1136
1185
1172
1179
1136
1173
1168
1167
1248
1268
1185
1168
1156
1140
1139
1131
1183
1211
1216
1215
1216
1211
1246
1248
1142
1147
1136
1200
1239
1265
1216
1188
1206
1154
1139
1152
1189
1191
1248
1159
1146
1198
1177
1173
1216
1267
1189
1167
1144
1154
1139
1142
1198
1289
1227
1186
1121
1263
1276
1180
1137
1189
1199
1228
1119
1182
1110
1173
1162
1147
1206
1302
1200
1145
1206
1154
1136
1142
1100
1103
1256
1194
1292
1186
1185
1209
1164
1152
1180
1178
1163
1194
1216
1237
1230
1137
1136
1117
1126
1221
1246
1229
1200
1141
1125
1223
1167
1230
1226
1175
1221
1136
1148
1122
1260
1225
1157
1186
1251
1206
1177
1169
1190
1174
1147
1166
1147
1194
1200
1206
1194
1184
1247
1168
1217
1222
1197
1197
1185
1149
1200
1125
1138
1188
1200
1251
1206
1202
1239
1216
1142
1208
1215
1205
1223
1170
1137
1232
1245
1247
1232
1168
1163
1217
1168
1157
1231
1294
1306
1255
1200
1168
1213
1199
1254
1250
1221
1358
1317
1267
1248
1243
1231
1193
1183
1233
1191
1204
1313
1365
1232
1200
1247
1217
1171
1216
1176
1203
1232
1214
1174
1188
1197
1204
1158
1115
1150
1072
1063
1138
1170
1152
1212
1145
1096
1161
1115
1137
1119
1201
1174
1232
1106
1109
1157
1189
1136
1093
1112
1135
1173
1175
1228
1154
1151
1201
1201
1252
1126
1200
1079
1175
1225
1264
1216
1231
1206
1216
1300
1311
1430
1514
1535
1603
1619
1712
1805
1861
1725
1923
1462
1919
1142
613
988
713
790
627
747
804
901
902
1005
1072
1099
1135
1195
1179
1171
1083
1131
1126
1186
1184
1125
1138
1129
1200
1137
1136
1166
1156
1226
1246
1161
1191
1152
1200
1147
1150
1183
1223
1218
1168
1255
1185
1200
1332
1181
1166
1289
1215
1238
1244
1155
1168
1173
1245
1168
1157
1198
1201
1196
1232
1201
1197
1271
1248
1243
1205
1251
1340
1296
1215
1222
1185
1200
1294
1283
1230
1232
1228
1260
1277
1261
1258
1307
1269
1325
1343
1296
1238
1243
1270
1351
1255
1284
1321
1405
1344
1362
1358
1290
1285
1302
1302
1341
1419
1354
1345
1349
1406
1401
1389
1339
1346
1350
1377
1413
1435
1319
1317
1374
1289
1201
1244
1360
1281
1328
1235
1167
1229
1211
1287
1200
1162
1126
1138
1094
1168
1130
1156
1072
1088
1171
1074
1040
978
978
1072
1073
1072
1017
1049
1017
1003
994
983
1071
1020
1061
1072
1014
1008
1006
1068
1115
1101
1015
1023
971
1041
1163
1074
1005
1062
1117
1072
1120
1113
1008
1045
1066
1088
1053
1073
1119
1106
1075
1094
1151
1162
1106
1056
1077
1036
1040
1104
1091
1105
1186
1091
1168
1086
1137
1143
1170
1168
1140
1140
1109
1161
1117
1131
1162
1187
1098
1116
1194
1236
1195
1168
1188
1264
1149
1104
1159
1162
1157
1135
1197
1200
1168
1174
1178
1166
1175
1248
1253
1206
1199
1229
1194
1091
1152
1170
1193
1136
1141
1200
1165
1124
1273
1187
1184
1196
1166
1143
1187
1200
1154
1219
1172
1211
1165
1148
1161
1143
1170
1206
1153
1105
1184
1223
1194
1173
1108
1107
1175
1195
1169
1226
1203
1178
1083
1178
1159
1162
1211
1152
1141
1140
1213
1276
1170
1203
1234
1153
1200
1185
1168
1207
1210
1283
1188
1197
1179
1143
1087
1113
1165
1205
1207
1152
1135
1126
1176
1195
1193
1218
1142
1176
1109
1135
1169
1263
1185
1094
1310
1170
1117
1150
1201
1191
1203
1141
1123
1120
1202
1235
1176
1114
1136
1249
1177
1237
1180
1222
1171
1168
1168
1172
1225
1129
1165
1206
1217
1141
1196
1248
1263
1151
1174
1168
1178
1136
1252
1232
1259
1325
1221
1134
1119
1101
1115
1123
1123
1286
1250
1168
1211
1211
1205
1201
1168
1202
1211
1235
1199
1169
1209
1152
1209
1234
1186
1200
1173
1213
1162
1222
1177
1220
1158
1238
1200
1219
1245
1266
1219
1235
1180
1250
1206
1175
1088
1206
1221
1164
1201
1166
1202
1202
1190
1182
1199
1260
1217
1166
1206
1138
1168
1221
1093
1209
1265
1280
1248
1263
1261
1191
1205
1191
1179
1169
1219
1237
1155
1203
1194
1202
1233
1216
1249
1275
1282
1283
1263
1287
1322
1331
1271
1243
1299
1264
1248
1222
1152
1166
1235
1275
1251
1193
1185
1209
1204
1279
1293
1295
1230
1157
1189
1271
1221
1219
1183
1152
1072
1125
1142
1157
1105
1137
1142
1093
1111
1138
1125
1082
1079
1079
1175
1135
1110
1163
1197
1072
1205
1073
1165
1134
1117
1167
1189
1149
1141
1147
1162
1175
1168
1151
1135
1173
1168
1168
1167
1231
1243
1232
1232
1233
1315
1274
1328
1485
1554
1566
1636
1718
1814
1957
2021
2011
1847
1470
1134
967
816
679
889
714
951
641
894
922
976
1031
1045
1120
1122
1153
1119
1008
974
1011
1072
1113
1121
1107
1093
1158
1117
1182
1155
1131
1133
1170
1177
1183
1201
1208
1200
1164
1174
1239
1178
1218
1174
1174
1125
1166
1175
1167
1183
1221
1189
1154
1200
1194
1163
1140
1209
1296
1216
1157
1190
1232
1201
1215
1167
1152
1263
1248
1226
1217
1179
1185
1204
1178
1129
1156
1209
1280
1271
1300
1249
1182
1267
1218
1291
1259
1264
1312
1312
1358
1183
1136
1181
1221
1296
1345
1296
1289
1294
1289
1391
1332
1296
1296
1282
1323
1318
1319
1328
1318
1299
1312
1365
1328
1386
1423
1349
1305
1312
1278
1294
1345
1273
1289
1286
1257
1266
1212
1287
1245
1216
1190
1172
1233
1216
1085
1088
1143
1088
1074
1078
1094
1136
1089
1013
1040
1055
1089
1073
1011
1048
1050
1019
995
1054
1001
1022
1001
976
1070
977
944
1006
1069
1089
1105
1055
1062
988
1022
1077
1080
1041
1022
1097
1040
1047
1105
1040
1088
1116
1073
1058
1139
1019
1106
1164
1066
1104
1095
1119
1116
1143
1119
1103
1086
1084
1088
1136
1122
1150
1170
1182
1147
1086
1142
1155
1159
1143
1090
1078
1157
1197
1209
1119
1066
1099
1163
1150
1154
1104
1127
1144
1170
1195
1147
1157
1123
1147
1202
1168
1178
1149
1163
1200
1166
1249
1263
1117
1177
1185
1193
1209
1167
1143
1142
1223
1202
1140
1232
1060
1171
1216
1269
1236
1229
1133
1254
1206
1239
1229
1184
1159
1132
1188
1200
1219
1203
1180
1181
1172
1170
1195
1242
1168
1146
1131
1137
1167
1152
1151
1151
1170
1169
1143
1187
1190
1238
1181
1200
1148
1147
1168
1246
1218
1209
1200
1153
1188
1199
1229
1206
1117
1075
1168
1140
1199
1168
1241
1168
1213
1155
1216
1146
1153
1205
1140
1174
1198
1140
1153
1279
1168
1217
1132
1197
1140
1136
1165
1156
1172
1197
1282
1235
1152
1178
1233
1178
1130
1132
1166
1191
1137
1217
1165
1198
1167
1200
1147
1220
1237
1200
1140
1200
1163
1127
1216
1166
1133
1127
1200
1215
1230
1233
1200
1129
1179
1261
1216
1238
1251
1237
1213
1213
1246
1241
1233
1306
1211
1232
1206
1244
1210
1231
1242
1209
1200
1230
1197
1152
1227
1239
1228
1233
1162
1120
1138
1131
1188
1083
1195
1170
1083
1040
999
1063
1129
1136
1066
1088
1073
1190
1120
1148
1198
1135
1123
1081
1126
1133
1107
1121
1125
1165
1197
1170
1115
1104
1088
1124
1143
1091
1087
1177
1097
1157
1191
1134
1131
1154
1183
1215
1275
1302
1209
1184
1250
1363
1435
1515
1631
1634
1696
1838
1966
1968
1733
1918
1535
944
1202
777
661
657
650
723
784
928
1022
1103
1051
997
1076
1140
1158
1126
1099
1091
1136
1142
1104
1117
1146
1103
1104
1116
1166
1152
1165
1185
1170
1184
1191
1223
1202
1215
1123
1094
1173
1242
1222
1202
1121
1088
1177
1127
1153
1153
1175
1200
1159
1168
1201
1170
1226
1168
1201
1291
1250
1189
1166
1205
1202
1225
1198
1268
1219
1194
1283
1222
1212
1196
1187
1232
1237
1239
1303
1264
1328
1313
1263
1232
1247
1291
1321
1235
1259
1219
1254
1310
1246
1288
1287
1266
1344
1283
1398
1331
1262
1273
1292
1229
1291
1326
1328
1307
1326
1319
1328
1301
1311
1345
1344
1351
1396
1394
1351
1310
1313
1283
1332
1293
1281
1338
1181
1268
1247
1326
1274
1245
1237
1215
1141
1126
1201
1165
1125
1078
1136
1071
1088
1114
1122
1111
986
1010
1043
1047
1013
1014
1047
1044
1003
955
982
960
1017
1078
1051
1022
1078
1056
979
1051
1074
1082
1105
1130
1058
969
1023
1079
1105
1057
1062
1040
1161
1086
1023
1131
1122
1191
1185
1079
1044
1114
1104
1079
1010
1023
1042
1089
1086
1070
1093
1149
1103
1145
1099
1085
1051
1190
1150
1137
1131
1107
1136
1139
1149
1127
1206
1131
1167
1130
1156
1219
1251
1168
1120
1181
1187
1210
1264
1221
1136
1232
1254
1229
1157
1130
1161
1126
1137
1143
1195
1239
1214
1240
1139
1130
1173
1141
1165
1196
1162
1214
1143
1133
1241
1201
1184
1206
1184
1245
1189
1169
1135
1179
1168
1232
1227
1222
1171
1110
1122
1154
1185
1229
1132
1199
1184
1253
1252
1242
1195
1184
1201
1157
1194
1188
1191
1210
1168
1151
1142
1184
1122
1136
1162
1165
1232
1199
1170
1181
1209
1180
1165
1167
1179
1152
1231
1266
1167
1188
1171
1137
1107
1166
1168
1181
1165
1232
1168
1184
1178
1169
1169
1198
1234
1158
1187
1179
1152
1232
1178
1255
1209
1136
1200
1209
1245
1239
1248
1244
1226
1182
1250
1319
1297
1219
1297
1296
1261
1271
1223
1215
1195
1232
1236
1242
1277
1203
1161
1136
1231
1287
1251
1243
1294
1235
1253
1238
1174
1141
1168
1184
1209
1136
1078
1054
1088
1069
1151
1130
1218
1133
1114
1138
1149
1114
1089
1091
1138
1111
1104
1133
1098
1159
1146
1147
1163
1120
1153
1170
1126
1168
1163
1119
1195
1139
1136
1142
1211
1178
1236
1218
1118
1081
1123
1141
1201
1178
1290
1282
1200
1188
1263
1342
1502
1519
1596
1579
1671
1826
2022
2005
1872
1950
1697
1049
1349
786
737
674
667
714
842
847
958
1071
1111
1088
1052
1129
1115
1069
1077
1074
1076
1054
1095
1095
1102
1103
1104
1136
1168
1179
1178
1223
