1317
1215
1203
1175
1161
1292
1288
1298
1355
1418
1401
1452
1520
1434
1419
1384
1425
1407
1475
1535
1521
1482
1416
1409
1437
1441
1455
1519
1519
1424
1427
1444
1424
1445
1375
1409
1267
1264
1265
1250
1424
1353
1429
1376
1297
1439
1389
1332
1315
1334
1122
1042
1134
1164
1109
1104
1147
1072
1049
1088
1046
1134
974
912
1059
1175
1114
915
1006
819
1018
944
1157
1185
1070
925
1009
1023
944
1023
986
960
1115
1043
1101
976
1072
994
1022
1023
1071
1070
1046
975
1040
1090
1089
1066
1005
1001
1077
998
1165
1185
1085
977
1020
1059
1072
1170
1141
1152
1163
1218
1168
1360
1245
1173
1215
1232
1131
1135
1227
1216
1148
1125
1238
1230
1279
1179
1158
1104
1087
1041
1018
1042
1099
1220
1328
1401
1317
1168
1191
1147
1179
1114
1088
1067
1077
1265
1314
1290
1267
1380
1268
1168
1210
1360
1111
1062
1104
1137
1084
1118
1186
1245
1314
1267
1338
1083
1072
1130
1239
1205
1149
1088
1117
1083
1220
1226
1317
1344
1312
1368
1232
1264
1155
1168
1268
1294
1252
1227
1297
1218
1137
1291
1387
1414
1411
1344
1264
1231
1375
1311
939
1107
1117
1296
1311
1119
1149
1217
1232
1234
1117
1082
1261
1417
1018
997
1276
1245
1249
1101
1107
1072
1091
935
1003
1031
1131
1151
1139
1098
1270
1149
1231
1113
1071
1075
1185
1202
1129
1072
1046
1023
1016
1022
1038
1178
970
1098
1103
1174
1104
1303
1533
1589
2143
2239
2226
1802
2290
2398
2493
2461
2496
2518
1949
1597
1360
1057
827
672
642
531
556
432
439
691
587
539
569
464
823
715
877
862
881
970
940
986
985
998
976
938
976
947
979
1061
1135
1093
1095
1061
1007
993
1114
1012
1042
1072
1087
1070
1074
1008
1074
1163
1198
1096
1136
1184
1174
1136
979
1023
1088
1090
1112
1136
1149
1049
1238
1138
1269
1174
1122
1271
1229
1165
1136
1018
1040
1145
1077
1193
1214
1248
1182
1254
1206
1283
1218
1209
1276
1281
1223
1234
1248
1296
1259
1257
1275
1276
1331
1375
1299
1354
1232
1306
1352
1437
1403
1367
1297
1371
1360
1296
1311
1399
1421
1394
1411
1415
1365
1232
1265
1136
1264
1344
1363
1328
1275
1235
1284
1193
1136
1090
1268
1296
1211
1254
1125
998
1051
1008
1073
1056
965
995
987
977
951
880
915
866
855
784
732
897
960
944
867
889
1007
960
911
839
779
818
869
964
899
937
870
912
985
1003
837
998
1031
832
863
848
870
1039
1038
997
967
1021
1072
1102
1020
1090
1050
986
1003
1009
890
1047
1086
1106
1168
1156
1077
1181
1045
1041
960
1002
1037
1122
1104
1044
959
1001
1088
1017
1103
998
1088
1062
1043
1018
1022
990
1019
1008
1109
1098
1115
1173
1120
1101
1083
1127
1116
1057
1065
995
987
1062
1162
1104
1040
1011
1119
1053
1150
1125
1076
1140
1059
1079
1101
1040
978
882
1042
1344
1298
1066
983
1071
1168
1165
1091
1107
1186
1182
1171
1159
1123
1162
1083
1094
1102
1088
1169
1146
1203
1173
1170
1133
1171
1248
1157
1091
1119
1040
1130
1094
1054
1055
1088
1104
1120
1146
1183
1242
1263
1138
1131
1213
1163
1126
1043
1007
1035
973
1054
1039
1103
1074
1004
1040
1046
1057
1131
1153
1215
1154
1075
1041
1039
1055
1037
1137
1129
1070
993
1081
1072
1067
1162
1200
1097
1106
1104
1135
1051
1150
1229
1298
1420
1687
2125
1978
1894
2301
2363
2395
2397
2493
2431
2028
1624
1248
1103
880
684
653
529
437
438
491
400
511
511
480
592
890
666
734
911
932
955
917
982
914
920
1002
1008
1012
945
1005
967
1052
998
966
1022
1043
1010
1040
1019
974
1017
1040
981
1105
1098
1167
1103
1099
1170
1071
1045
1008
1097
1065
1091
1113
1106
1084
1121
1168
1168
1183
1158
1129
1169
1195
1206
1117
1173
1023
1143
1151
1136
1259
1163
1171
1125
1136
1199
1166
1166
1182
1185
1217
1280
1271
1178
1210
1267
1252
1211
1281
1327
1364
1396
1392
1281
1267
1342
1298
1310
1328
1333
1375
1494
1445
1407
1332
1391
1362
1298
1319
1402
1441
1345
1367
1331
1399
1375
1365
1344
1338
1303
1341
1293
1360
1322
1264
1176
1118
1099
1049
1140
1186
1091
1088
1099
1163
1086
1004
1062
1006
959
976
982
940
938
908
823
849
847
945
1040
969
963
906
880
850
962
996
1022
976
930
938
977
995
1014
953
1017
1046
948
934
1063
1102
1034
982
1014
1023
960
896
947
1068
1046
975
1023
963
1040
1116
1105
1123
1099
1105
1153
1102
1090
1047
1104
1037
1058
1131
1104
1065
1079
1072
1134
1118
1105
1056
1123
1085
1133
1094
1154
1185
1123
1127
1057
1129
1175
1072
1021
1073
1093
1147
1150
1104
1140
1090
1092
1114
1054
1089
1034
1088
1076
1218
1205
1138
1064
1104
1161
1047
1079
1081
1123
1136
1195
1147
1134
1060
1081
1116
1114
1173
1168
1120
1089
1165
1177
1152
1142
1136
1123
1175
1147
1193
1194
1241
1185
1197
1147
1151
1210
1153
1209
1219
1197
1177
1176
1114
1251
1216
1193
1264
1254
1288
1262
1253
1239
1216
1232
1282
1251
1252
1168
1137
1047
1232
1138
1129
1132
1185
1213
1181
1127
1237
1272
1167
1104
1089
1142
1089
1087
1165
1159
1155
1181
1082
1099
1104
1152
1173
1136
1210
1239
1247
1216
1161
1149
1157
1212
1232
1120
1107
1067
1091
1216
1127
1053
1040
1178
1296
1377
1575
1811
2043
1751
2217
2353
2517
2513
2509
2551
2595
2444
2170
1758
1383
1148
930
735
621
560
593
576
572
560
585
622
746
859
627
820
942
976
966
1046
1086
1041
1082
1067
1040
1168
1097
1134
1056
1236
1098
1058
1079
1169
1166
1194
1137
1152
1190
1124
1190
1174
1201
1136
1136
1103
1155
1155
1168
1239
1278
1228
1182
1117
1123
1159
1264
1276
1228
1151
1151
1171
1277
1199
1249
1274
1262
1264
1287
1321
1232
1213
1264
1312
1341
1298
1287
1238
1313
1360
1362
1318
1325
1283
1364
1341
1335
1378
1335
1379
1339
1309
1345
1392
1399
1389
1437
1419
1474
1530
1456
1424
1463
1442
1455
1403
1441
1579
1495
1535
1492
1494
1520
1491
1437
1392
1382
1378
1376
1520
1506
1486
1367
1386
1296
1362
1321
1266
1207
1269
1264
1306
1264
1147
1136
1248
1158
1179
1073
1061
1071
1036
993
987
1035
974
1007
992
1013
1023
967
1008
1031
1074
998
958
957
1002
971
1062
1035
1050
975
1126
1135
1061
1090
1068
1037
1091
1038
1031
1009
1035
1074
1040
1141
1106
1152
1222
1051
1013
1115
1063
1167
1105
1216
1136
1157
1191
1127
1166
1242
1307
1286
1199
1139
1110
1128
1107
1201
1265
1281
1252
1166
1185
1151
1170
1165
1178
1217
1216
1204
1200
1263
1200
1211
1168
1183
1217
1233
1195
1151
1152
1211
1253
1218
1120
1165
1239
1229
1234
1255
1271
1239
1201
1161
1179
1231
1213
1264
1201
1244
1241
1275
1225
1234
1280
1231
1175
1213
1201
1239
1281
1360
1322
1251
1213
1247
1165
1217
1274
1327
1267
1247
1312
1269
1236
1285
1258
1200
1166
1232
1302
1262
1280
1247
1244
1327
1255
1238
1287
1317
1264
1367
1314
1303
1291
1295
1247
1268
1217
1297
1231
1309
1301
1265
1262
1232
1191
1180
1248
1199
1234
1249
1316
1251
1266
1190
1221
1196
1200
1153
1167
1159
1178
1153
1213
1223
1238
1247
1200
1235
1225
1239
1246
1263
1167
1121
1217
1203
1216
1253
1162
1152
1206
1171
1199
1200
1271
1375
1490
1634
1846
2075
2256
2327
2421
2556
2612
2608
2483
2306
2000
1702
1422
1148
867
741
692
621
634
703
752
736
659
667
745
759
792
761
926
969
1072
1059
1087
1105
1058
1142
1141
1055
1107
1132
1233
1251
1167
1206
1170
1177
1217
1159
1185
1168
1132
1186
1264
1147
1125
1134
1189
1119
1200
1264
1280
1198
1276
1270
1324
1232
1219
1232
1205
1280
1255
1268
1267
1216
1274
1319
1243
1159
1188
1261
1351
1457
1376
1343
1283
1297
1311
1318
1264
1321
1328
1359
1318
1358
1287
1363
1316
1387
1456
1422
1437
1371
1461
1395
1434
1383
1389
1374
1425
1470
1456
1554
1621
1552
1443
1424
1518
1490
1527
1500
1467
1399
1409
1457
1495
1501
1535
1525
1442
1438
1403
1434
1393
1370
1363
1329
1355
1346
1374
1330
1328
1302
1202
1218
1211
1207
1259
1121
1130
1171
1184
1117
1095
1067
1086
1075
990
983
1060
1104
987
957
1010
1083
1022
1040
944
1093
1055
1055
1008
983
1055
990
1056
1061
977
1040
1041
1088
1087
1087
1072
1083
1118
1136
1080
1087
1099
1115
1087
1135
1102
1129
1093
1124
1094
1084
1083
1145
1172
1133
1082
1085
1136
1197
1172
1177
1152
1289
1163
1198
1258
1135
1106
1177
1200
1137
1073
1135
1262
1162
1296
1189
1152
1158
1121
1211
1200
1221
1204
1232
1154
1125
1101
1104
1189
1203
1135
1110
1093
1237
1270
1157
1228
1163
1168
1141
1127
1125
1145
1164
1210
1167
1203
1236
1199
1251
1297
1268
1205
1188
1262
1245
1152
1165
1178
1229
1266
1183
1184
1182
1152
1203
1249
1216
1205
1295
1241
1225
1232
1223
1231
1248
1226
1200
1288
1240
1159
1307
1242
1360
1309
1262
1187
1214
1202
1215
1245
1236
1237
1267
1317
1297
1246
1261
1207
1231
1214
1202
1228
1211
1124
1165
1217
1146
1126
1158
1134
1258
1129
1275
1261
1183
1167
1264
1217
1168
1194
1190
1247
1197
1093
1110
1243
1200
1189
1197
1174
1229
1167
1253
1216
1088
1164
1163
1121
1131
1123
1221
1213
1339
1525
1733
1919
2001
2501
2166
2368
2585
2672
2608
2275
1936
1647
1354
2559
1056
857
754
711
605
626
608
559
558
679
742
788
802
766
846
963
957
976
991
1055
1104
1040
1067
1119
1189
1070
1120
1084
1208
1153
1126
1151
1099
1232
1157
1152
1150
1216
1120
1190
1159
1232
1232
1177
1155
1184
1210
1223
1244
1223
1257
1219
1189
1200
1204
1242
1267
1127
1142
1219
1341
1295
1276
1343
1313
1255
1300
1257
1223
1190
1200
1296
1264
1322
1318
1298
1255
1264
1264
1303
1303
1328
1285
1334
1342
1392
1326
1345
1369
1392
1421
1357
1405
1479
1478
1424
1399
1424
1403
1424
1507
1426
1518
1503
1493
1520
1486
1523
1522
1523
1535
1533
1534
1453
1399
1413
1463
1435
1365
1392
1392
1303
1326
1273
1368
1338
1274
1277
1237
1264
1259
1159
1165
1225
1182
1147
1134
1150
1071
1023
1016
1037
1076
1109
1037
1168
1012
978
1019
910
1040
951
999
1040
1031
983
980
988
1023
1045
1041
1040
976
965
980
1060
973
1047
1046
1058
1066
1091
1175
1220
1053
1049
1049
1162
1130
1044
1120
1105
1180
1142
1136
1123
1159
1074
1076
1105
1104
1188
1232
1159
1110
1103
1198
1143
1155
1167
1234
1101
1022
1214
1059
1015
1095
1184
1209
1168
1227
1213
1207
1150
1118
1203
1139
1152
1136
1155
1142
1217
1183
1122
1111
1233
1282
1147
1170
1260
1215
1173
1165
1153
1168
1220
1186
1192
1167
1176
1214
1166
1171
1152
1120
1161
1248
1168
1178
1216
1117
1093
1150
1075
1206
1133
1244
1239
1183
1245
1207
1248
1194
1191
1235
1302
1287
1207
1251
1247
1227
1261
1201
1222
1191
1252
1264
1281
1249
1204
1179
1277
1275
1254
1263
1236
1218
1133
1249
1290
1232
1168
1312
1159
1200
1130
1115
1247
1269
1239
1136
1199
1185
1199
1261
1232
1190
1206
1110
1168
1206
1191
1183
1088
1150
1145
1134
1153
1200
1226
1150
1152
1141
1178
1148
1168
1116
1072
1068
1104
1168
1216
1219
1223
1170
1168
1115
1094
1104
1019
1085
1121
1178
1280
1414
1556
1725
1837
2032
2319
2449
2513
2423
2559
2740
2656
2330
2002
1627
1335
1045
897
801
647
528
583
679
497
643
771
565
787
829
752
830
816
964
1001
976
1071
1099
1070
1047
1091
1134
1063
1167
1198
1142
1053
1009
1132
1168
1157
1162
1141
1200
1158
1167
1178
1229
1136
1189
1139
1161
1156
1183
1217
1143
1193
1200
1167
1187
1217
1253
1206
1142
1117
1143
1179
1278
1247
1232
1233
1248
1209
1267
1344
1296
1218
1299
1334
1363
1354
1328
1247
1315
1296
1341
1379
1339
1360
1387
1299
1360
1373
1322
1330
1328
1376
1392
1421
1345
1432
1398
1462
1510
1466
1484
1481
1475
1460
1418
1459
1520
1493
1441
1518
1535
1454
1408
1478
1498
1456
1441
1463
1391
1469
1424
1472
1444
1393
1416
1393
1343
1387
1362
1331
1306
1210
1254
1248
1221
1202
1168
1157
1104
1154
1072
1039
1127
1079
1007
986
995
965
953
997
995
947
939
932
967
983
991
1080
1013
959
1054
1010
1039
1046
1161
1105
1019
1043
1072
1074
1119
1062
1095
1071
989
982
1035
1152
1150
1090
1068
1130
1085
1134
1120
1118
1125
1163
1121
1186
1187
1146
1168
1088
1099
1057
1116
1065
1079
1154
1227
1168
1133
1150
1162
1217
1163
1221
1229
1146
1183
1177
1215
1200
1171
1135
1092
1199
1115
1132
1231
1167
1158
1213
1190
1155
1260
1195
1163
1227
1262
1254
1168
1216
1123
1092
1138
1175
1094
1173
1105
1118
1177
1241
1264
1315
1190
1170
1162
1239
1207
1229
1170
1196
1162
1140
1137
1231
1213
1136
1183
1289
1227
1159
1136
1141
1216
1232
1265
1238
1197
1214
1296
1247
1223
1215
1264
1167
1277
1305
1280
1234
1245
1280
1267
1295
1254
1191
1264
1279
1226
1173
1222
1127
1128
1245
1225
1211
1169
1230
1229
1111
1168
1119
1186
1231
1183
1170
1185
1233
1228
1214
1250
1240
1122
1127
1163
1168
1261
1169
1190
1242
1106
1106
1114
1186
1214
1197
1121
1186
1139
1121
1170
1115
1124
1136
1168
1209
1308
1390
1482
1642
1853
2128
2298
2332
2480
2559
2628
2618
2483
2156
1747
1439
1169
941
756
687
623
576
560
592
711
672
701
677
714
626
976
908
875
947
981
961
994
959
998
1031
1130
1107
1074
1088
1135
1118
1170
1178
1187
1201
1154
1106
1055
1199
1148
1043
1099
1200
1282
1232
1264
1220
1101
1159
1123
1182
1232
1232
1264
1217
1155
1230
1199
1302
1295
1265
1152
1187
1141
1186
1230
1258
1264
1234
1217
1177
1178
1290
1280
1248
1194
1301
1255
1226
1357
1339
1314
1239
1265
1286
1360
1380
1329
1408
1408
1347
1347
1341
1362
1394
1429
1426
1398
1365
1365
1395
1422
1433
1429
1443
1411
1525
1486
1456
1397
1339
1315
1317
1344
1535
1467
1424
1381
1409
1312
1311
1389
1423
1441
1325
1356
1345
1328
1263
1223
1183
1201
1229
1150
1098
1107
1071
1072
1102
1104
976
912
895
970
974
1040
950
955
993
1007
974
899
887
896
969
951
1088
1072
965
1021
980
1002
927
998
969
1060
1060
999
1021
961
966
981
1088
1070
1118
1109
1054
1036
1050
1044
1075
1017
981
1022
1051
1087
1067
1119
1118
1097
1122
1058
1140
1092
1168
1043
1072
1110
1104
1067
1115
1104
1053
1039
1072
1191
1154
1130
1111
1108
1136
1168
1075
1091
1133
1190
1165
1182
1084
1092
1105
1121
1142
1097
1136
1136
1113
1041
1149
1178
1185
1154
1146
1122
1155
1171
1187
1169
1152
1135
1131
1123
1171
1282
1227
1200
1125
1138
1126
1132
1152
1200
1140
1249
1187
1138
1239
1264
1168
1153
1210
1104
1169
1219
1173
1199
1199
1230
1247
1279
1233
1270
1175
1174
1267
1194
1194
1186
1235
1224
1186
1179
1211
1202
1143
1146
1255
1178
1243
1168
1155
1137
1095
1185
1145
1140
1104
1093
1053
1109
1137
1120
1153
1082
1136
1166
1200
1194
1158
1117
1135
1125
1136
1178
1158
1134
1211
1179
1140
1171
1208
1168
1154
1088
1074
1023
1032
1055
1258
1153
1205
1392
1616
1502
1797
1963
2164
2303
2470
2415
2483
2592
2437
2198
1907
1667
1008
1331
844
671
605
546
541
571
579
549
570
646
746
752
772
817
926
955
909
933
1003
1006
997
1023
1060
1164
1147
1036
1011
1011
1062
1066
1021
1136
1136
1072
1038
1079
1187
1168
1210
1201
1185
1140
1187
1088
1090
1143
1174
1196
1247
1185
1264
1242
1184
1206
1205
1157
1130
1201
1168
1159
1200
1211
1186
1209
1202
1250
1215
1253
1253
1229
1235
1200
1232
1266
1269
1333
1328
1266
1206
1270
1282
1295
1408
1404
1386
1311
1281
1295
1323
1402
1430
1397
1495
1513
1402
1518
1406
1429
1461
1535
1481
1486
1413
1456
1354
1410
1507
1517
1515
1535
1506
1489
1405
1392
1424
1435
1360
1381
1344
1402
1397
1331
1300
1279
1264
1263
1338
1294
1259
1245
1167
1252
1094
1122
1082
1076
1054
1037
992
1143
1017
976
987
1015
958
960
942
911
938
1003
944
910
991
1040
981
1038
987
950
927
976
1008
1066
1076
1057
1008
1077
1041
1018
986
1009
1072
1042
1077
1081
1015
1073
1053
1051
1022
1015
1077
1088
1136
1095
1116
1050
1019
1022
1070
1148
1125
1110
1072
1092
1104
1168
1199
1141
1126
1178
1154
1119
1138
1131
1125
1095
1174
1052
1090
1147
1154
1138
1168
1067
1170
1127
1152
1131
1124
1170
1108
1131
1098
1225
1169
1135
1120
1121
1173
1118
1132
1137
1099
1136
1111
1153
1154
1179
1165
1142
1164
1132
1194
1206
1168
1181
1189
1190
1206
1131
1191
1200
1145
1181
1156
1207
1212
1182
1203
1183
1191
1221
1207
1217
1185
1243
1223
1232
1246
1132
1133
1156
1184
1246
1270
1264
1227
1263
1338
1312
1260
1137
1204
1211
1200
1197
1232
1241
1291
1247
1146
1177
1189
1190
1189
1136
1104
1184
1110
1146
1135
1153
1179
1156
1216
1159
1169
1134
1154
1136
1101
1110
1110
1152
1119
1232
1152
1225
1189
1232
1188
1189
1173
1211
1127
1135
1165
1152
1072
1084
1097
1152
1152
1102
1191
1195
1280
1396
1535
1760
1885
2112
2403
2469
2516
2589
2685
2697
2505
2075
1756
1421
1147
896
720
638
592
539
496
539
576
640
648
585
809
681
854
898
928
957
963
1018
986
969
1023
1007
1009
1057
1099
1084
1098
1046
1022
996
1103
1200
1186
1189
1135
1143
1215
1162
1154
1130
1142
1136
1138
1130
1184
1115
1123
1183
1194
1110
1106
1175
1229
1193
1252
1136
1109
1251
1265
1173
1173
1205
1155
1201
1232
1212
1265
1232
1201
1239
1327
1333
1291
1314
1289
1296
1216
1296
1286
1299
1280
1327
1346
1345
1355
1379
1360
1348
1361
1369
1378
1385
1360
1424
1441
1423
1423
1441
1344
1346
1391
1439
1436
1456
1438
1447
1445
1473
1535
1482
1410
1338
1371
1502
1458
1424
1488
1487
1328
1413
1334
1290
1283
1331
1246
1237
1259
1254
1232
1192
1213
1179
1137
1094
1073
1035
1062
1060
990
955
944
969
1007
991
961
891
912
1008
1042
1017
914
944
889
892
962
976
929
1059
977
995
944
915
1009
1015
986
994
1009
1070
1049
1117
1062
1101
1067
1120
1054
1023
1023
1047
1073
1045
998
1135
1136
1100
1035
1078
1021
1088
1040
1143
1044
1088
1100
1104
1149
1105
1131
1132
1132
1150
1099
1129
1044
1088
1113
1077
1110
1113
1145
1168
1181
1233
1143
1173
1165
1102
1181
1072
1108
1198
1112
1032
1101
1162
1211
1246
1173
1131
1162
1127
1190
1140
1220
1199
1232
1177
1138
1182
1201
1138
1136
1233
1108
1168
1168
1153
1138
1127
1151
1189
1182
1261
1298
1299
1189
1146
1200
1183
1174
1161
1225
1157
1211
1232
1159
1165
1222
1202
1226
1243
1280
1257
1207
1289
1221
1167
1166
1190
1171
1130
1105
1141
1206
1243
1216
1168
1094
1127
1168
1088
1127
1093
1096
1178
1142
1162
1134
1152
1200
1196
1210
1126
1104
1043
1081
1189
1136
1282
1155
1223
1138
1162
1136
1141
1151
1193
1125
1118
1055
1203
1246
1134
1170
1161
1263
1286
1439
1616
1784
2007
2147
2301
2378
2451
2528
2523
2495
2278
1598
1302
1101
1933
867
665
558
579
566
563
572
561
633
651
704
739
675
699
799
922
1022
986
1006
976
1059
1045
1061
990
1138
1071
1088
1041
1069
1061
1082
1077
1070
1139
1113
1108
1136
1171
1200
1219
1173
1085
1088
1082
1187
1197
1167
1101
1088
1086
1150
1122
1123
1170
1207
1254
1262
1139
1147
1159
1236
1199
1302
1317
1281
1264
1173
1182
1146
1237
1348
1275
1285
1286
1221
1187
1203
1268
1270
1331
1327
1271
1273
1313
1318
1305
1326
1322
1319
1405
1360
1358
1425
1365
1367
1410
1407
1388
1351
1360
1511
1472
1419
1418
1335
1333
1411
1424
1459
1485
1456
1527
1520
1317
1463
1406
1350
1369
1409
1424
1444
1306
1334
1278
1283
1296
1223
1187
1213
1172
1152
1088
1153
1164
1058
1046
996
1057
1014
1039
933
865
974
982
877
1008
880
919
909
938
931
916
932
933
948
912
1015
1006
939
867
889
1020
994
971
1066
1050
1084
931
996
951
1015
1034
1044
1051
1079
1037
1084
1084
1108
1048
1008
1043
1056
1031
1051
1068
1100
1135
1106
1069
1064
1086
1104
1072
1097
1072
1083
1161
1107
1078
1118
1059
1056
1147
1117
1195
1136
1129
1189
1137
1173
1089
1104
1163
1211
1243
1146
1136
1023
1066
1213
1149
1098
1105
1088
1135
1136
1168
1129
1227
1165
1069
1061
1121
1130
1181
1104
1101
1086
1163
1153
1194
1136
1185
1149
1182
1169
1092
1111
1145
1105
1083
1145
1282
1271
1152
1200
1126
1190
1265
1247
1216
1200
1153
1153
1231
1232
1195
1168
1135
1168
1161
1258
1363
1201
1264
1198
1223
1247
1259
1264
1257
1191
1123
1174
1204
1270
1276
1116
1068
1104
1175
1148
1136
1169
1161
1136
1215
1254
1190
1147
1147
1171
1274
1220
1190
1104
1094
1079
1099
1124
1165
1166
1110
1088
1150
1167
1169
1127
1184
1237
1162
1156
1131
1196
1114
1221
1117
1067
1074
1104
1037
975
1104
1184
1281
1239
1443
1920
1633
1705
2182
2377
2480
2431
2518
2599
2483
2213
2639
1840
1525
1170
912
679
579
654
670
652
612
629
592
672
613
688
659
774
889
974
960
901
946
877
951
1073
1153
1159
1105
1113
1037
1022
1031
1058
1146
1104
1045
1042
1073
1177
1189
1168
1161
1219
1210
1182
1210
1152
1008
1078
1107
1171
1159
1235
1250
1221
1137
1102
1168
1151
1196
1232
1225
1153
1111
1123
1241
1194
1191
1187
1222
1246
1154
1213
1332
1281
1241
1311
1289
1237
1215
1289
1360
1315
1317
1308
1368
1360
1381
1303
1330
1328
1330
1314
1285
1488
1434
1402
1337
1379
1395
1441
1435
1488
1421
1391
1407
1354
1399
1413
1567
1590
1534
1486
1376
1385
1459
1422
1407
1431
1428
1457
1462
1377
1383
1359
1333
1268
1381
1443
1342
1306
1232
1207
1179
1174
1209
1153
1076
1087
1035
1095
979
1017
949
961
922
929
993
966
1008
947
934
1023
1008
907
899
886
895
897
912
955
950
938
1023
1007
1069
1059
1072
1067
976
1143
1052
1091
1098
1066
1008
1072
1037
1092
1036
1049
1086
1074
1072
1071
1097
1150
1146
1088
1083
1075
1138
1063
1117
1037
1090
1095
1083
1180
1107
1184
1086
1072
1022
1083
1061
1139
1141
1163
1203
1167
1191
1201
1203
1034
1071
1126
1088
1100
1094
1178
1096
1141
1133
1147
1211
1267
1196
1183
1221
1183
1168
1125
1079
1079
1083
1095
1194
1200
1174
1155
1022
1110
1163
1184
1146
1171
1206
1148
1239
1239
1114
1136
1147
1149
1170
1099
1157
1132
1129
1180
1231
1203
1196
1253
1255
1264
1195
1196
1185
1237
1266
1234
1246
1252
1178
1220
1235
1223
1267
1263
1294
1175
1180
1252
1200
1234
1231
1233
1267
1253
1222
1186
1218
1212
1201
1154
1203
1228
1173
1118
1136
1133
1152
1174
1133
1173
1179
1230
1277
1247
1216
1152
1088
1130
1212
1197
1218
1185
1183
1150
1157
1189
1217
1215
1141
1200
1214
1219
1111
1157
1158
1139
1158
1159
1087
1074
1091
1202
1194
1284
1471
1959
1699
2177
2195
2381
2559
2602
2607
2654
2558
2014
1787
1450
1167
1004
848
791
597
624
593
572
563
606
556
690
711
746
774
847
893
894
929
964
1092
1035
1055
1063
1082
1179
1077
939
1023
1049
939
1089
1107
1095
1171
1072
1105
1023
1156
1126
1160
1062
1189
1235
1238
1246
1104
1168
1107
1122
1152
1246
1172
1182
1148
1350
1203
1232
1219
1152
1135
1199
1301
1296
1049
1233
1216
1193
1296
1259
1227
1240
1238
1347
1270
1168
1215
1328
1365
1371
1280
1278
1314
1337
1328
1232
1285
1347
1402
1384
1291
1344
1332
1332
1332
1423
1360
1445
1433
1376
1419
1499
1469
1404
1535
1485
1394
1378
1499
1488
1423
1443
1404
1301
1450
1488
1579
1503
1584
1421
1346
1333
1331
1402
1328
1306
1312
1214
1162
1200
1184
1169
1171
1100
1112
1135
1012
865
1040
1021
980
1023
969
991
1002
902
931
907
929
922
928
1046
950
1017
944
986
975
1012
961
1051
868
953
1098
941
981
946
982
1059
1062
978
993
901
999
1019
1050
1055
1040
1136
1088
1136
1168
1106
1004
1051
1097
1120
1086
1088
1120
1102
1167
1226
1082
1039
1021
1090
1023
1074
1162
1121
1142
1089
1279
1172
1072
1091
1072
1072
1136
1077
1184
1152
1157
1130
1137
1168
1040
1109
1221
1174
1130
1198
1127
1118
1010
1078
1091
1136
1229
1126
1189
1156
983
1169
1109
1059
1200
1289
1119
1159
1087
1136
1221
1147
1215
1227
1193
1107
1110
1110
1147
1104
1129
1168
1157
1258
1170
1127
1077
1159
1223
1280
1298
1251
1217
1223
1205
1223
1235
1191
1181
1203
1165
1219
1281
1194
1145
1161
1146
1174
1193
1255
1272
1242
1220
1181
1104
1127
1146
1168
1150
1213
1226
1144
1133
1082
1137
1093
1063
1023
1092
1163
1193
1211
1231
1187
1143
1141
1113
1130
1105
1191
1186
1188
1182
1147
1125
1190
1101
1116
1187
1106
1132
1125
1119
1072
1045
1152
1134
1145
1162
1315
1427
1508
1696
1917
2126
2277
2270
2383
2450
2514
2375
2494
2079
1737
1456
1216
912
729
688
706
569
545
545
555
564
575
615
709
755
820
814
975
926
896
922
905
961
1086
1104
1030
1071
1021
1092
1055
1040
1067
1119
1126
1152
1084
1062
1175
1190
1152
1036
1067
1201
1157
1170
1164
1182
1104
1134
1122
1134
1087
1082
1168
1200
1041
1184
1177
1260
1131
1239
1189
1186
1200
1261
1174
1139
1178
1193
1163
1295
1147
1353
1354
1168
1213
1175
1169
1149
1169
1221
1351
1301
1294
1215
1410
1351
1397
1264
1308
1307
1385
1367
1378
1349
1363
1403
1311
1453
1386
1355
1382
1381
1457
1453
1467
1483
1449
1423
1477
1477
1449
1374
1366
1514
1493
1424
1391
1385
1335
1394
1423
1376
1316
1368
1317
1334
1263
1271
1255
1228
1254
1203
1206
1107
1063
1068
1094
1083
979
962
881
934
1008
1072
1008
955
960
996
951
976
953
956
960
891
930
947
871
790
833
949
973
982
1011
1093
1018
961
976
965
1097
1065
1032
1031
1066
1005
1037
1045
1073
989
989
1033
1089
1043
1069
1107
1075
1073
1055
1135
1101
1066
1090
1079
1054
1126
1008
1020
1085
1136
1181
1143
1114
1105
1175
1138
1072
1023
1023
962
1168
1211
1178
1203
1103
1170
1162
1134
1102
1168
1192
1088
1094
1093
1168
1172
1168
1118
1090
1107
1095
1200
1152
1136
1072
1095
1088
1141
1191
1119
1104
1147
1097
1123
1189
1099
1153
1091
1108
1147
1200
1214
1135
1110
1138
1187
1267
1200
1160
1138
1173
1200
1147
1163
1085
1088
1123
1218
1199
1255
1227
1250
1293
1190
1277
1104
1147
1207
1264
1195
1081
1069
1163
1147
1169
1141
1229
1257
1198
1168
1107
1210
1284
1355
1302
1371
1262
1275
1286
1263
1283
1233
1196
1157
1139
1185
1203
1168
1136
1173
1193
1163
1180
1185
1123
1173
1146
1142
1109
1150
1152
1110
1129
1134
1018
1107
1078
1131
1207
1155
1186
1137
1142
1152
1223
1208
1203
1245
1172
1163
1167
1101
1056
1146
1159
1083
1193
1128
1245
1351
1707
1532
1904
2093
2307
2384
2506
2442
2510
2559
2455
2269
1853
1535
1310
991
753
670
579
541
511
589
580
683
613
740
646
628
754
946
942
1008
951
949
1008
1066
1040
1065
1040
1072
993
1044
1090
1085
1047
1107
1054
1073
1081
1114
1073
1053
1101
1146
1170
1178
1216
1124
1121
1090
1134
1106
1161
1195
1095
1155
1226
1296
1173
1289
1187
1166
1104
1232
1161
1150
1168
1254
1231
1225
1200
1202
1268
1254
1213
1213
1237
1268
1217
1201
1242
1318
1344
1319
1231
1287
1287
1205
1296
1297
1328
1344
1360
1385
1378
1424
1401
1365
1335
1427
1524
1478
1413
1392
1511
1522
1452
1431
1471
1395
1486
1491
1456
1518
1509
1462
1443
1341
1410
1396
1423
1456
1463
1411
1408
1455
1385
1387
1322
1319
1337
1275
1271
1328
1227
1121
1119
1136
1102
1076
1168
1101
1108
1011
991
935
985
954
943
1032
986
937
945
971
958
1014
982
925
917
935
1009
987
1042
926
867
911
973
1008
1008
1008
1053
1079
1086
1045
1022
1083
1102
1056
979
955
947
1037
1078
1054
1109
1072
1076
1131
1102
1066
1018
1078
1088
1114
1091
1123
1153
1167
1153
1050
1122
1097
1101
1196
1199
1086
1075
1095
1102
1136
1104
1131
1152
1136
1164
1136
1212
1182
1180
1166
1135
1135
1147
1214
1122
1136
1151
1149
1116
1171
1202
1133
1123
1133
1136
1110
1168
1077
1051
1126
1152
1149
1169
1313
1248
1107
1129
1129
1106
1155
1184
1213
1110
1168
1178
1167
1202
1131
1178
1197
1196
1142
1154
1219
1095
1191
1089
1088
1187
1270
1267
1269
1210
1230
1195
1142
1248
1269
1190
1251
1245
1182
1204
1179
1182
1237
1249
1231
1198
1157
1104
1132
1245
1246
1225
1200
1226
1219
1270
1231
1265
1271
1297
1258
1296
1242
1281
1157
1140
1201
1206
1200
1280
1193
1145
1168
1266
1297
1205
1210
1094
1115
1187
1277
1198
1106
1152
1239
1247
1209
1189
1195
1201
1238
1200
1157
1179
1090
1166
1120
1104
1123
1168
1186
1271
1229
1169
1171
1195
1159
1147
1142
1166
1199
1102
1069
1135
1074
1168
1074
1230
1156
1349
1485
1642
1714
1951
2148
2304
2403
2490
2525
2636
2526
2329
2047
1729
1414
1091
880
758
752
646
500
531
636
618
672
659
733
736
806
832
835
900
928
880
944
924
1037
1083
1103
1143
1194
1173
1098
1115
1121
1078
1071
1063
1138
1218
1212
1173
1110
1158
1148
1169
1072
1110
1152
1113
1150
1190
1239
1230
1226
1219
1200
1168
1136
1191
1202
1173
1178
1187
1163
1100
1166
1217
1197
1212
1187
1155
1216
1211
1293
1217
1183
1236
1227
1282
1251
1273
1298
1319
1298
1296
1349
1355
1321
1355
1360
1374
1319
1232
1274
1345
1358
1425
1433
1455
1422
1380
1419
1456
1472
1489
1513
1456
1441
1351
1486
1398
1469
1449
1513
1372
1596
1459
1453
1408
1428
1426
1372
1395
1417
1334
1381
1249
1431
1402
1357
1355
1349
1255
1203
1185
1181
1227
1169
1164
1199
1173
1104
1071
1065
1075
1022
955
958
975
1006
982
977
860
837
895
961
923
949
921
891
1047
935
1040
963
992
927
976
1066
1034
1037
1107
1087
1084
1003
1040
1083
1059
917
953
1042
1106
1084
1007
1053
1086
1133
1152
1065
1087
1083
1055
1075
1067
1093
1099
1104
1147
1105
1008
1115
1187
1170
1175
1140
1142
1182
1085
1193
1162
1121
1146
1155
1139
1125
1117
1157
1232
1248
1157
1193
1166
1127
1130
1072
1078
1107
1201
1175
1171
1200
1081
1061
1097
1089
1152
1149
1153
1170
1172
1109
1083
1073
1071
1211
1200
1168
1166
1194
1216
1163
1087
1088
1143
1155
1168
1215
1151
1226
1213
1152
1204
1170
1117
1104
1216
1109
1145
1111
1251
1280
1218
1174
1122
1145
1179
1171
1285
1250
1141
1107
1212
1191
1216
1226
1167
1243
1275
1252
1229
1290
1245
1213
1182
1270
1248
1266
1165
1188
1218
1169
1186
1216
1183
1159
1149
1151
1151
1197
1267
1200
1208
1199
1194
1115
1122
1079
1066
1150
1175
1143
1116
1116
1118
1104
1171
1185
1113
1102
1200
1147
1126
1189
1167
1211
1110
1173
1168
1250
1164
1168
1184
1126
1117
1142
1129
1104
1058
1088
1105
1072
1287
1331
1132
1466
1587
1852
2054
2160
2384
2288
2559
2591
2542
2273
2481
1851
1535
1301
950
775
768
682
577
583
609
627
603
556
647
688
661
743
884
849
912
930
1004
966
1034
929
1049
1004
1117
1117
1107
1079
1085
1097
1089
1090
1071
1093
1090
1105
1091
1102
1136
1136
1104
1163
1134
1050
1174
1123
1080
1102
1166
1221
1196
1191
1152
1120
1138
1146
1121
1251
1169
1169
1214
1203
1142
1143
1145
1137
1254
1141
1323
1303
1163
1178
1226
1232
1229
1214
1264
1262
1272
1311
1301
1312
1236
1203
1163
1337
1399
1360
1316
1360
1387
1393
1424
1394
1443
1440
1453
1419
1395
1392
1449
1362
1326
1371
1395
1434
1520
1502
1472
1481
1535
1488
1469
1437
1462
1453
1443
1380
1424
1419
1410
1411
1313
1295
1321
1344
1280
1222
1245
1188
1244
1200
1225
1136
1154
1095
1095
999
1042
1038
1015
951
938
857
930
1023
1067
1023
1087
1059
985
909
1003
1014
950
894
992
980
1013
1008
958
976
940
958
906
928
974
1093
1064
993
984
1045
1091
1040
1067
1070
1063
1058
1012
1045
1103
1107
1075
1008
990
957
1093
1157
1120
1133
1195
1228
1129
1187
1074
1104
1107
1089
1098
1070
1072
1171
1100
1098
1104
1165
1197
1181
1115
1201
1119
1073
1104
1092
1123
1150
1173
1229
1255
1309
1182
1153
1046
1085
1146
1134
1083
1119
1085
1136
1200
1197
1158
1222
1242
1233
1161
1137
1244
1201
1143
1075
1125
1196
1136
1187
1206
1173
1185
1148
1141
1165
1098
1109
1150
1200
1245
1211
1104
1057
1104
1138
1199
1200
1147
1137
1239
1209
1180
1210
1094
1204
1111
1178
1190
1167
1274
1229
1200
1086
1207
1326
1223
1141
1197
1214
1232
1181
1157
1182
1245
1273
1141
1202
1081
1167
1230
1257
1321
1223
1136
1240
1233
1296
1289
1252
1258
1216
1201
1167
1219
1319
1249
1163
1233
1244
1281
1186
1289
1231
1186
1114
1172
1193
1227
1214
1227
1129
1120
1155
1227
1150
1160
1131
1214
1175
1095
1168
1217
1072
1129
1193
1058
1152
1234
1221
1228
1135
1168
1108
1159
1164
1221
1239
1145
1081
1075
1131
1153
1131
1201
1287
1555
1783
1405
1924
2080
2205
2437
2394
2490
2521
2463
2371
2058
1637
1413
1120
944
747
698
654
588
594
567
572
582
653
743
749
775
775
903
909
1008
945
1041
1069
1094
991
1041
1104
1109
1111
1149
1103
1041
1073
1205
1212
1217
1167
1066
1120
1177
1151
1185
1118
1121
1023
1081
1096
1047
1202
1231
1307
1227
1142
1193
1120
1167
1166
1118
1123
1138
1117
1243
1201
1139
1173
1203
1257
1186
1151
1250
1312
1294
1293
1231
1211
1264
1231
1236
1259
1231
1232
1360
1392
1350
1346
1264
1370
1374
1311
1314
1306
1326
1330
1250
1330
1381
1374
1351
1385
1413
1422
1453
1463
1392
1426
1440
1418
1383
1391
1491
1488
1454
1401
1488
1396
1334
1354
1416
1535
1456
1482
1375
1378
1401
1366
1344
1338
1361
1344
1312
1198
1196
1184
1238
1183
1159
1063
1118
1131
1089
1011
1047
1023
1083
1050
1019
1031
977
1056
1033
983
927
890
854
918
954
917
987
982
1035
1088
1064
945
925
977
1046
1077
1086
1072
1011
1015
1023
922
998
971
1007
1040
1109
1059
1093
1033
1010
1080
1086
1085
1087
1073
1169
1129
1136
1083
1239
1141
1143
1098
1082
1019
1104
1122
1159
1200
1096
1102
1103
1110
1118
1168
1120
1181
1058
1155
1185
1197
1153
1109
1155
1124
1158
1131
1216
1122
1164
1152
1195
1138
1135
1118
1126
1185
1153
1168
1149
1192
1123
1088
1094
1121
1136
1131
1155
1122
1142
1083
1073
1105
1124
1186
1199
1152
1187
1161
1152
1175
1183
1200
1238
1234
1198
1160
1094
1183
1139
1136
1094
1104
1156
1242
1238
1200
1179
1265
1205
1201
1106
1107
1115
1168
1173
1182
1171
1222
1168
1105
1075
1110
1138
1198
1218
1079
1198
1217
1239
1257
1214
1201
1232
1218
1223
1168
1136
1143
1215
1175
1227
1269
1294
1271
1281
1264
1235
1168
1182
1213
1227
1207
1254
1271
1243
1265
1195
1199
1133
1197
1232
1200
1186
1214
1136
1121
1102
1159
1133
1090
1113
1156
1174
1150
1116
1092
1087
1247
1234
1238
1171
1173
1119
1118
1114
1149
1136
1146
1181
1146
1135
1041
1075
1198
1231
1214
1200
1119
1013
1091
1013
1137
1187
1385
1489
1631
1754
1883
2000
2107
2269
2414
2487
2455
2427
2293
1968
1686
1474
1178
890
735
624
588
630
605
610
713
683
781
719
751
868
957
1001
1038
1068
1017
1023
998
1040
1051
1144
1078
1023
1043
1114
1147
1104
1061
1017
1065
1118
1056
1149
1100
1200
1265
1159
1118
1094
1100
1072
1135
1151
1213
1177
1153
1133
1238
1200
1166
1170
1218
1187
1211
1179
1227
1134
1242
1152
1274
1235
1194
1215
1200
1235
1257
1237
1206
1229
1310
1200
1191
1200
1203
1231
1273
1234
1215
1248
1355
1378
1347
1251
1293
1289
1366
1391
1362
1391
1307
1350
1339
1296
1341
1431
1488
1457
1414
1422
1427
1492
1467
1454
1417
1424
1458
1420
1355
1472
1447
1435
1456
1442
1480
1519
1421
1406
1355
1371
1281
1291
1241
1318
1331
1277
1180
1235
1219
1249
1238
1200
1136
1129
1109
1094
1136
1072
1023
1072
1018
1070
1014
1008
1006
1004
1034
1018
1009
991
970
904
946
1001
1011
1056
995
1006
976
951
1058
1014
1006
1037
959
1010
1040
988
958
1017
993
1050
1111
1072
1023
1088
1092
1045
1083
1008
1043
1005
1103
1108
1104
1117
1178
1121
1155
1139
1106
1134
1175
1128
1121
1167
1167
1133
1148
1138
1148
1042
1077
1077
1105
1107
1118
1103
1133
1097
1058
1106
1152
1092
1152
1154
1206
1242
1190
1133
1127
1111
1143
1120
1119
1129
1102
1076
1155
1291
1186
1133
1171
1149
1211
1230
1138
1098
1212
1182
1187
1117
1098
1123
1154
1175
1142
1136
1147
1141
1143
1116
1186
1212
1166
1194
1173
1189
1181
1262
1232
1200
1104
1094
1190
1214
1216
1167
1175
1168
1168
1216
1207
1147
1098
1146
1179
1190
1216
1193
1161
1166
1162
1227
1245
1138
1171
1217
1269
1233
1125
1155
1147
1143
1168
1115
1183
1237
1246
1260
1204
1264
1220
1231
1168
1223
1296
1296
1275
1235
1297
1276
1222
1258
1258
1254
1259
1207
1193
1216
1224
1211
1154
1121
1136
1195
1149
1166
1225
1278
1253
1166
1154
1153
1131
1104
1054
1087
1162
1136
1040
1072
1221
1296
1216
1197
1173
1151
1179
1141
1189
1234
1250
1155
1121
1215
1088
1204
1120
1117
1200
1175
1215
1328
1418
1472
1623
1888
2116
2180
2290
2393
2370
2470
2508
2372
2157
1713
1473
1271
978
599
700
816
603
624
577
576
656
674
743
727
800
854
863
1002
1003
1023
995
1102
1114
1012
981
1001
1021
1099
1054
1061
1099
1090
1174
1174
1136
1190
1199
1049
1040
1140
1152
1186
1118
1138
1178
1056
1086
1226
1117
1145
1136
1179
1155
1149
1195
1335
1221
1232
1177
1205
1244
1197
1235
1201
1245
1197
1234
1205
1283
1211
1216
1197
1200
1216
1286
1323
1325
1211
1189
1277
1274
1221
1210
1296
1211
1365
1378
1336
1297
1267
1291
1347
1356
1377
1358
1385
1392
1461
1506
1451
1445
1469
1407
1399
1424
1377
1520
1535
1486
1471
1514
1408
1453
1401
1432
1452
1483
1398
1378
1472
1442
1315
1408
1332
1344
1385
1330
1363
1343
1300
1307
1255
1207
1271
1213
1206
1118
1137
1170
1124
1132
1038
1076
1076
1019
1001
959
906
898
929
950
1040
966
929
896
967
924
882
881
1022
946
996
971
1008
1069
1104
1040
1051
1087
1077
1008
1013
1071
1013
1040
1056
1013
976
1088
1146
1120
1106
997
1043
1107
1069
1110
1042
1020
1065
1079
1072
1057
1040
1116
1131
1104
1101
1122
1134
1051
1103
1105
1103
1165
1124
1194
1108
1097
1097
1119
1081
1136
1247
1126
1238
1172
1204
1263
1168
1126
1111
1082
1158
1150
1143
1200
1144
1102
1167
1088
1168
1140
1141
1109
1105
1176
1109
1141
1102
1107
1171
1217
1200
1213
1076
1139
1134
1194
1167
1127
1152
1205
1136
1159
1186
1207
1199
1167
1127
1163
1187
1215
1168
1181
1170
1212
1150
1221
1195
1155
1108
1173
1159
1205
1171
1119
1166
1181
1304
1185
1312
1155
1130
1167
1249
1193
1191
1278
1210
1229
1221
1172
1162
1285
1288
1217
1238
1234
1200
1191
1231
1222
1226
1278
1238
1270
1301
1306
1232
1206
1168
1279
1314
1264
1190
1168
1146
1265
1296
1281
1279
1196
1182
1188
1218
1126
1116
1213
1153
1142
1108
1158
1152
1136
1123
1162
1200
1172
1205
1200
1199
1175
1195
1279
1145
1142
1200
1040
1233
1211
1245
1168
1209
1227
1264
1168
1212
1169
1079
1181
1126
1073
1168
1235
1328
1422
1531
1723
1923
2100
2224
2373
2395
2502
2669
2655
2371
1978
1424
1712
1126
933
736
624
595
589
528
591
670
595
622
630
720
831
864
908
979
1055
1035
976
1003
1072
1050
1005
1013
1059
1159
1140
1145
1129
1113
1089
1042
1072
1104
1150
1061
1009
1110
1114
1168
1183
1168
1205
1179
1119
1088
1072
1098
1315
1232
1238
1216
1120
1219
1166
1309
1254
1228
1218
1180
1131
1149
1266
1286
1235
1195
1210
1229
1200
1280
1254
1178
1200
1121
1264
1264
1317
1232
1338
1322
1315
1307
1263
1318
1299
1343
1296
1405
1345
1314
1314
1358
1360
1431
1356
1392
1461
1419
1455
1473
1415
1463
1453
1433
1344
1354
1310
1439
1498
1483
1392
1360
1535
1431
1397
1338
1423
1383
1409
1456
1421
1335
1313
1378
1437
1455
1264
1213
1198
1262
1211
1264
1172
1148
1151
1105
1107
1035
973
993
1051
1176
1072
950
987
960
958
976
1014
903
933
927
987
967
958
954
956
1008
985
994
982
960
974
967
1014
987
927
955
1019
1059
944
976
1040
1055
1023
1011
998
1023
1072
1088
1142
1104
1168
1054
1116
1155
1133
1202
1169
1163
1088
1123
1149
1093
1110
1094
1098
1119
1049
1169
1200
1070
1071
1124
1107
1138
1053
1087
1149
1131
1188
1103
1084
1106
1069
1057
1083
1100
1139
1214
1125
1189
1157
1101
1152
1087
1169
1122
1152
1119
1140
1166
1146
1168
1117
1181
1104
1174
1121
1149
1170
1206
1131
1187
1207
1137
1188
1134
1104
1133
1072
1078
1217
1179
1223
1213
1156
1149
1126
1162
1137
1172
1142
1171
1176
1067
1228
1261
1115
1150
1088
1206
1241
1207
1221
1163
1178
1165
1243
1217
1180
1232
1255
1239
1199
1165
1271
1251
1279
1231
1200
1293
1284
1168
1211
1245
1270
1246
1289
1312
1283
1283
1202
1212
1200
1200
1157
1146
1191
1163
1246
1181
1105
1090
1122
1172
1200
1083
1117
1093
1136
1175
1133
1182
1162
1178
1131
1139
1045
974
1088
1235
1258
1211
1194
1136
1191
1281
1234
1137
1120
1197
1221
1138
1041
1119
1296
1236
1423
1655
1822
2071
1152
2149
2224
2268
2415
2454
2507
2544
2405
2185
1772
1424
1135
870
715
655
679
544
530
555
604
576
588
597
677
742
790
892
919
969
1000
990
1045
1079
1014
1040
1071
1120
1124
1159
1186
1159
1182
1088
1093
1093
1054
1057
1120
1127
1123
1151
1121
1154
1102
1200
1175
1126
1134
1104
1182
1136
1142
1173
1111
1258
1158
1186
1158
1149
1088
1154
1328
1168
1168
1245
1263
1133
1200
1286
1257
1214
1216
1243
1257
1243
1261
1327
1323
1312
1221
1228
1234
1332
1309
1287
1255
1306
1360
1350
1251
1353
1429
1344
1342
1390
1471
1424
1411
1451
1419
1449
1403
1438
1439
1488
1426
1455
1467
1516
1458
1423
1475
1470
1501
1520
1518
1386
1488
1461
1441
1331
1329
1359
1411
1376
1317
1262
1465
1249
1246
1316
1218
1136
1105
1066
1173
1105
1213
1078
1035
1022
1043
1082
1072
982
967
1082
1101
1023
990
913
961
943
976
978
943
955
1007
967
959
1021
981
993
964
960
952
987
1050
950
861
917
984
982
976
971
939
1082
1130
1074
1107
1105
1059
1047
1047
1115
976
1020
1083
1175
1079
1177
991
1069
1105
1171
1157
1087
1079
1110
1136
1126
1087
1104
1130
1135
1136
1119
1168
1139
1086
1104
1092
1042
1110
1154
1039
1104
1200
1149
1233
1228
1139
1124
1013
1088
1157
1210
1193
1165
1169
1216
1162
1154
1210
1206
1201
1169
1171
1166
1199
1119
1051
1103
1104
1192
1163
1141
1138
1091
1097
1170
1158
1168
1213
1179
1215
1255
1313
1239
1214
1074
1137
1110
1328
1202
1349
1168
1221
1213
1239
1246
1309
1327
1296
1271
1169
1279
1222
1248
1236
1176
1189
1252
1225
1220
1185
1201
1193
1194
1166
1175
1136
1232
1181
1096
1098
1115
1207
1158
1096
1094
1071
1127
1182
1232
1117
1100
1200
1201
1214
1230
1168
1101
1129
1232
1193
1139
1152
1201
1131
1158
1229
1158
1165
1214
1205
1140
1136
1120
1116
1062
1126
1134
1159
1383
1229
1666
1795
1984
2166
2306
2464
2559
2586
2746
2716
2448
1949
1638
1414
1208
742
895
670
657
627
640
560
597
601
701
667
712
795
896
922
901
955
1037
1040
953
1008
1093
1088
1079
1058
1114
1082
1085
1075
1072
1069
1103
1122
1134
1073
1075
1166
1083
1156
1180
1184
1214
1192
1088
1157
1230
1213
1205
1206
1282
1255
1169
1251
1221
1146
1219
1154
1231
1218
1254
1280
1270
1200
1155
1222
1181
1198
1207
1275
1323
1307
1233
1221
1219
1239
1210
1232
1248
1207
1331
1340
1254
1270
1199
1228
1328
1377
1454
1351
1370
1396
1392
1402
1396
1380
1392
1415
1490
1423
1367
1365
1431
1478
1503
1528
1424
1379
1414
1360
1379
1451
1392
1424
1408
1472
1416
1328
1426
1478
1369
1312
1365
1369
1350
1233
1160
1166
1296
1341
1334
1306
1263
1082
1142
1197
1157
1071
1078
1040
1031
1015
1005
1007
976
973
991
1008
1058
981
966
984
1015
930
958
939
1012
949
967
981
1067
929
987
960
919
959
1010
1008
1042
1040
995
985
1008
1157
1075
1061
1113
1118
1107
1109
1057
1059
1102
1116
1119
1040
1114
1134
1129
1178
1165
1072
1135
1102
1088
1121
1012
1079
1146
1133
1135
1078
1120
1168
1091
1072
1066
1130
1113
1103
1104
1105
1158
1215
1119
1144
1092
1131
1150
1094
1067
1155
1143
1123
1073
1101
1200
1097
1072
1127
1122
1134
1190
1168
1183
1222
1235
1244
1210
1200
1216
1216
1171
1136
1142
1187
1216
1211
1218
1226
1158
1131
1217
1241
1247
1214
1195
1200
1191
1209
1174
1249
1210
1142
1264
1205
1155
1168
1138
1104
1104
1193
1104
1104
1105
1136
1234
1197
1175
1156
1139
1212
1211
1197
1151
1185
1142
1077
1121
1095
1078
1129
1135
1078
1126
1088
1184
1087
1055
1101
1104
1122
1189
1175
1143
1168
1119
1095
1082
1058
1085
1072
1094
1103
1215
1150
1338
1493
1647
1846
2109
2245
2410
2433
2448
2452
2525
2462
2153
1744
1399
1173
848
693
656
511
528
511
469
464
564
682
681
802
799
769
839
950
914
904
972
1003
1155
1086
1040
1008
1061
1064
1013
1056
1033
1008
1075
1182
1179
1129
1122
1076
1087
1103
1104
1137
1146
1111
1132
1129
1082
1136
1180
1214
1147
1125
1195
1169
1094
1166
1123
1163
1203
1265
1253
1187
1117
1222
1280
1265
1231
1111
1131
1141
1157
1223
1328
1277
1261
1270
1257
1251
1226
1234
1270
1200
1249
1234
1271
1344
1311
1296
1271
1328
1284
1296
1350
1393
1371
1309
1312
1334
1367
1509
1475
1408
1343
1370
1467
1450
1447
1449
1484
1442
1455
1446
1455
1420
1462
1459
1533
1491
1435
1296
1328
1282
1333
1375
1338
1277
1331
1278
1293
1232
1187
1206
1197
1162
1082
993
1075
1104
1103
1063
1118
1111
1023
992
979
940
930
950
953
947
1059
1072
1040
914
880
914
925
974
973
939
944
950
996
978
932
944
933
927
1001
996
961
1031
1011
970
1008
1071
1088
1079
1042
1043
1131
1040
995
1052
1182
1089
1003
949
960
1042
1099
1157
1089
1143
1138
1084
1057
1066
1071
941
1117
999
1113
1139
1120
1136
1158
1137
1175
1134
971
1152
1121
1125
1145
1071
1050
1216
1107
1035
1110
1106
1143
1166
1120
1168
1168
1115
1239
1088
1173
1302
1157
1164
1154
1119
1002
1186
1232
1158
1188
1168
1090
1178
1215
1185
1229
1251
1191
1223
1168
1156
1249
1116
1231
1310
1239
1283
1192
1175
1077
1259
1181
1210
1186
1187
1168
1098
997
1060
1092
1122
1253
1278
1206
1210
1244
1135
1059
1164
1067
1137
1118
1180
1088
1136
1060
1133
1107
1091
1231
1154
1114
1186
1185
1265
1206
1119
1155
1077
1167
1209
1269
1113
1182
1104
1105
1116
1023
1155
1056
1003
1125
1197
1210
1184
1216
1266
1424
1626
1802
2126
2239
2387
2274
2486
2628
2838
2684
2350
1136
1821
615
1519
1235
821
606
569
621
546
586
647
602
594
586
726
784
787
930
921
1008
894
962
961
1040
845
900
933
1017
1082
1072
1134
1091
1126
1083
1051
1019
995
1056
1083
1093
1114
1149
1111
1079
1120
1177
1107
1183
1100
974
1189
1262
1220
1196
1167
1363
1168
1145
1200
1145
1284
1167
1212
1281
1226
1200
1161
1174
1047
1213
1200
1330
1246
1417
1252
1161
1276
1280
1205
1344
1275
1314
1296
1220
1225
1298
1163
1252
1364
1310
1345
1363
1429
1407
1342
1457
1427
1426
1456
1534
1459
1457
1563
1385
1428
1340
1393
1421
1434
1535
1654
1614
1587
1449
1456
1351
1407
1406
1459
1443
1351
1483
1408
1404
1280
1325
1313
1265
1354
1423
1217
1186
1157
1166
1154
1115
1035
983
998
969
784
862
1047
1136
1064
961
912
973
1068
939
998
1057
921
1041
924
854
948
1089
1059
1023
948
982
976
986
1053
987
1021
1051
976
975
1058
976
1078
1049
980
1091
1115
1060
1103
1021
1039
1011
1063
1148
1136
1013
1006
1023
1051
1057
1002
1090
1036
1039
971
1035
1088
1187
1206
1152
1178
1169
1095
1141
1021
1034
1134
1137
1235
1273
1173
1135
1115
1056
1063
1040
1036
1002
1092
1085
1139
1115
1053
1012
1263
1114
1062
1259
1204
1234
1197
1188
1291
1323
1344
1216
1084
1119
1123
1186
1172
1212
1166
1114
1075
1178
1264
1254
1289
1305
1245
1293
1187
1167
1183
1142
1205
1200
1197
1179
1168
1163
1155
1231
1264
1242
1210
1286
1264
1008
982
998
1090
1223
1168
1216
1181
1206
1260
1232
1228
1281
1189
1113
1117
1146
1152
1172
1179
1168
1075
1094
1121
1172
1197
1158
1090
1083
1055
1241
1010
1186
1232
1261
1131
1054
1118
1099
1170
1110
1163
1136
1120
1150
1121
1588
1253
1813
1650
2183
2437
2623
2503
2434
2518
2480
2133
1449
1872
1060
1181
851
767
685
622
531
669
927
838
730
682
769
822
847
784
752
764
839
939
1356
1052
1168
1127
1227
1073
1136
1155
1134
1156
1072
1059
1007
1070
1086
1121
1200
1138
1152
1136
1004
976
1010
1185
1274
1217
1104
987
1100
1296
1478
1354
1178
1054
1076
1134
1169
1255
1190
1116
1270
1214
1321
1347
1186
1186
1251
1143
1293
1234
1054
1099
1168
1268
1232
1191
1366
1259
1225
1223
1203
1203
1265
1277
1235
1162
1185
1287
1339
1390
1368
1245
1175
1366
1316
1366
1373
1391
1414
1415
1367
1373
1290
1428
1595
1567
1424
1422
1506
1462
1363
1498
1409
1386
1427
1457
1425
1506
1508
1458
1335
1359
1410
1374
1402
1250
1200
1254
1301
1333
1258
1142
976
976
1002
1009
1285
1185
1200
1137
960
942
833
887
944
1004
996
944
985
1072
1072
1061
1021
963
896
976
1072
1008
946
863
1049
1040
961
970
1077
1203
1266
1184
1107
944
998
943
995
1122
1186
1015
935
1009
1070
1051
1085
1118
1189
1228
1131
1103
1116
1245
1200
1146
1134
1222
1264
1251
1276
1141
1232
1234
1136
1255
1232
1200
1177
1258
1232
1056
1042
1168
1248
1265
1144
1211
1332
1171
1232
1222
1235
1123
1102
1091
1073
1188
1195
1215
1200
1138
1168
1226
1178
1170
1232
1168
1110
1062
1188
1254
1317
1294
1221
1187
1307
1377
1328
1185
1226
1167
1267
1277
1313
1287
1263
1203
1200
1255
1197
1205
1241
1232
1183
1169
1136
1158
1168
1207
1142
1145
1168
1223
1217
1168
1085
1040
1097
1182
1104
1090
1169
1283
1235
1120
1065
1168
1318
1265
1182
1104
1103
1109
1141
1041
1135
1205
1183
1234
1317
1218
1211
1163
1234
1326
1193
1055
961
949
1020
1159
1291
1282
1319
1474
1667
1890
2127
2247
2329
2423
2362
2373
2426
2392
2256
1168
1462
1856
944
761
752
723
647
578
591
637
649
745
708
775
736
738
799
911
944
971
1003
1044
1089
1093
995
1047
1136
1095
1046
1053
1118
1133
1237
1219
1194
1113
1122
1043
1143
1159
1113
1061
1111
1199
1094
1104
1111
1066
1095
1098
1061
1059
1111
986
1018
1120
1153
1168
1211
1218
1293
1333
1282
1197
1168
1135
1134
1154
1126
1103
1034
1042
1216
1233
1223
1312
1334
1384
1343
1399
1337
1220
1260
1341
1270
1290
1424
1462
1331
1354
1441
1397
1357
1291
1392
1393
1408
1401
1462
1442
1446
1314
1299
1379
1438
1559
1518
1437
1296
1238
1321
1391
1457
1431
1424
1497
1430
1453
1393
1341
1296
1297
1440
1362
1453
1278
1124
1136
1146
1129
1188
1152
1207
1125
1163
1073
1077
1055
1014
1035
1092
1107
978
889
848
960
1087
1022
997
991
938
933
959
996
967
1003
1054
1038
1013
1041
1023
1046
1008
974
946
987
1069
1066
958
970
978
